0.0
0.0
0.0
0.0
0.0
0.0
0.0
0.0
0.0
0.0
0.0
0.0
0.0
0.0
0.0
0.0
0.0
0.0
0.0
0.0
0.0
0.0
0.0
0.0
0.0
0.0
0.0
0.0
0.0
0.0
0.0
0.0
0.0
0.0
0.0
0.0
0.0
0.0
0.0
0.0
0.0
0.0
0.0
0.0
0.0
0.0
0.0
0.0
0.0
0.0
0.0
0.0
0.0
0.0
0.0
0.0
0.0
0.0
0.0
0.0
0.0
0.0
0.0
0.0
0.0
0.0
0.0
0.0
0.0
0.0
0.0
0.0
0.0
0.0
0.0
0.0
0.0
0.0
0.0
0.0
0.0
0.0
0.0
0.0
0.0
0.0
0.0
0.0
0.0
0.0
0.0
0.0
0.0
0.0
0.0
0.0
0.0
0.0
0.0
0.0
0.0
0.0
0.0
0.0
0.0
0.0
0.0
0.0
0.0
0.0
0.0
0.0
0.0
0.0
0.0
0.0
0.0
0.0
0.0
0.0
0.0
0.0
0.0
0.0
0.0
0.0
4017.5812679767923
4016.949935511087
4017.060738451707
4017.8937133241993
4019.427687506394
4021.640727661907
4024.509685892096
4028.0114029525926
4032.1219344059955
4036.8166012404085
4042.0697641630895
4047.8555395339977
4054.1472636990993
4060.918118745992
4068.1409419835995
4075.788551775283
4083.833641774801
4092.2486946689905
4101.005988621296
4110.078465248398
4119.438965281308
4129.0604470159915
4138.916143233291
4148.979759465096
4159.2253055503
4169.626939064493
4180.159576547081
4190.798632602102
4201.5199480249
4212.300287187097
4223.117339863193
4233.948930205705
4244.773827518499
4255.5712376604015
4266.321326147899
4277.00504203951
4287.604351109508
4298.101850610003
4308.48104634949
4318.725990569206
4328.822113007304
4338.755849445496
4348.514421124606
4358.086051292299
4367.460069823504
4376.626423580307
4385.575858519885
4394.3001397542985
4402.792080077915
4411.045037629291
4419.053004259099
4426.811455237593
4434.316545529208
4441.564961186692
4448.553850742695
4455.281132014513
4461.745331719789
4467.9456949536
4473.881664053807
4479.553476187006
4484.961535434994
4490.1063681012965
4494.989068858303
4499.611545802491
4503.975820863396
4508.084786404498
4511.941657187507
4515.549942155698
4518.913586203502
4522.036915142698
4524.924246364898
4527.579942028594
4530.008901534702
4532.216514542706
4534.208234281705
4535.989476800104
4537.566175434388
4538.944236831503
4540.129770081098
4541.128915497992
4541.947993967989
4542.593370301398
4543.071377885497
4543.38777288469
4543.548958672898
4543.561667654194
4543.432657205905
4543.1685683520955
4542.776370092191
4542.262912313801
4541.63520727489
4540.900262400113
4540.065241340194
4539.137199736497
4538.123778236197
4537.0328438355955
4535.872068696105
4534.649471995611
4533.372924320201
4532.049903045998
4530.6876692602
4529.293779121504
4527.875527028597
4526.440280195696
4524.995160507694
4523.547119692395
4522.103295560391
4520.671255932297
4519.258087150888
4517.8710062186
4516.517047149297
4515.203270578107
4513.9363156071095
4512.722873719305
4511.569287394894
4510.481935985198
4509.467364988804
4508.532273589099
4507.682927720394
4506.925413708001
4506.265386412799
4505.708124604812
4505.258790153109
4504.922337803897
4504.703346826411
4504.606304151611
4504.635220236989
4504.793371972996
4505.08423122441
4505.510922153905
4506.076652665302
4506.784200416891
4507.63611913329
4508.634449099003
4509.781100642596
4511.077428330402
4512.524734296804
4514.123465137206
4515.8744509387025
4517.778142063697
4519.834319587806
4522.042374767397
4524.401417612191
4526.910101714598
4529.567257293686
4532.370977902602
4535.318855807401
4538.4084245805025
4541.637032208796
4545.001249738798
4548.497412317491
4552.121833160407
4555.8705389924935
4559.739208469786
4563.723155020996
4567.817832738312
4572.01827710489
4576.319458345996
4580.715966792189
4585.20219215839
4589.7728064344055
4594.422689687888
4599.14608586689
4603.937259126314
4608.790054003699
4613.6982518110035
4618.655717482092
4623.656265730195
4628.6936933968955
4633.762203440897
4638.855548016105
4643.967088781311
4649.090850949302
4654.221006341199
4659.3519301392935
4664.477908045613
4669.593504685809
4674.693583312604
4679.773082675904
4684.826803660811
4689.850051798603
4694.838006989996
4699.786776439414
4704.692255989385
4709.550475142611
4714.357443776504
4719.109698630514
4723.803576721901
4728.435864987498
4733.003187660196
4737.502799572008
4741.9320527925
4746.288476288
4750.569681787799
4754.774054893604
4758.899741720691
4762.945295828599
4766.909596519798
4770.791956353992
4774.591751167493
4778.308484520896
4781.941879191895
4785.491989445104
4788.958915912802
4792.3431730757975
4795.6458814747975
4798.868049997398
4802.010657463194
4805.074718097898
4808.061615595899
4810.972745490604
4813.809744755999
4816.574066650105
4819.267351813201
4821.890825598801
4824.4461507754
4826.935302290291
4829.360433740205
4831.723858433699
4834.028267754501
4836.276039991895
4838.469776916698
4840.612258929789
4842.706275911809
4844.754724121508
4846.760357572091
4848.726522428193
4850.656777865416
4852.5543560667065
4854.422396743906
4856.264449550911
4858.0839349502985
4859.8843777039965
4861.669166917293
4863.441857777413
4865.205881754686
4866.965124210098
4868.723541403291
4870.485630718902
4872.255771620905
4874.0388895229025
4875.8399064272935
4877.664276169786
4879.517647108089
4881.406130400696
4883.336241032402
4885.314742559696
4887.348794822407
4889.446351488998
4891.615505161482
4893.864342151896
4896.201493952807
4898.635983974697
4901.177101478896
4903.834384076604
4906.617934034894
4909.537956376307
4912.604987375214
4915.828998186098
4919.220790667293
4922.791498632596
4926.552543686194
4930.515156164505
4934.690952539987
4939.091334980517
4943.728141445289
4948.613050205904
4953.757948424405
4959.174267392304
4964.8739052752035
4970.8683417383145
4977.168633975297
4983.785757630789
4990.730790592599
4998.013989145299
5005.645308137504
5013.634477756592
5021.990472705307
5030.721691269002
5039.835782487901
5049.339554051898
5059.239429028698
5069.5414949074975
5080.250410840984
5091.370087828202
5102.903576561907
5114.8527529827015
5127.21824321969
5140.000072380608
5153.196829413793
5166.806014650603
5180.824439462
5195.2480564785
5210.07111660739
5225.286900012901
5240.887149037594
5256.8622153535935
5273.20123381381
5289.892323555108
5306.922025892199
5324.275568789702
5341.936893389499
5359.888189411806
5378.110789738507
5396.584824590801
5415.289167126292
5434.20145706069
5453.298402826409
5472.555087726295
5491.945840672204
5511.443792340693
5531.020891969885
5550.647756148796
5570.294931664306
5589.931631903386
5609.5259782445955
5629.045300242408
5648.456196109211
5667.724419266497
5686.815600318503
5705.694566592291
5724.325750809206
5742.673487901903
5760.7017055633005
5778.373659760293
5795.652882254803
5812.502994501512
5828.887738485295
5844.770951334089
5860.116619249896
5874.889270250404
5889.0538589707885
5902.575956451592
5915.421505487302
5927.5572119803965
5938.951086555814
5949.572317700907
5959.390529517594
5968.376449087095
5976.501512052606
5983.738521596299
5990.061544250597
5995.445980459598
5999.868365078694
6003.3072569524
6005.742297143882
6007.154264711304
6007.526134128994
6006.842894481093
6005.09128237858
6002.259905364001
5998.339254651785
5993.321844178194
5987.201972083404
5979.9757388942035
5971.6415479045
5962.199505019127
5951.652280733706
5940.004220393008
5927.26144648851
5913.432083802696
5898.526358351705
5882.555916843599
5865.5348568154095
5847.478789246108
5828.405485322902
5808.334472723597
5787.28671291621
5765.284647516199
5742.353361442207
5718.519322246114
5693.810911631586
5668.258111354297
5641.892647579403
5614.747536388203
5586.857065048209
5558.256961119305
5528.9844241198925
5499.077383673005
5468.575325131387
5437.518902007195
5405.9493675388785
5373.908743594604
5341.439685135096
5308.585654716393
5275.390679208196
5241.899369728105
5208.156351034311
5174.206543685901
5140.0946441847855
5105.865859295191
5071.565499031401
5037.238707021698
5002.930456614097
4968.68565578
4934.548458719409
4900.56268045999
4866.7716159652055
4833.218064624215
4799.944045141602
4766.990653220903
4734.398610300086
4702.207800115507
4670.456737653019
4639.182546512301
4608.421406098815
4578.208161029206
4548.576500326194
4519.558398795888
4491.184732154193
4463.484641347505
4436.4853594091155
4410.212473638403
4384.690712355112
4359.942861263391
4335.990354532206
4312.85265062301
4290.547591262509
4269.0912631754045
4248.4983843414075
4228.7815825838925
4209.9517792054
4192.018254176401
4174.988748422212
4158.868823170393
4143.662333779101
4129.371498434297
4115.996898898401
4103.537511675697
4091.990590794793
4081.3518250174034
4071.6153062828926
4062.7734967298948
4054.816758405906
4047.734698512295
4041.515678449396
4036.1464745808817
4031.612308253095
4027.8976275362065
4024.9852819555904
4022.8572053617995
4021.4939173665016
4020.8751010815013
4020.979230215502
4021.7844464327973
4023.2679916730904
4025.4063482231963
4028.1752960154063
4031.5501396303926
4035.505248846312
4040.0146515092874
4045.0520629450916
4050.59097303739
4056.604667335492
4063.066021345903
4069.9474926713106
4077.2219873666127
4084.86267115259
4092.8424213109
4101.13448300909
4109.712302117894
4118.5496235813025
4127.620339495391
4136.899028376308
4146.360619359506
4155.980424580294
4165.734588765604
4175.6000742685
4185.553918749096
4195.574233571597
4205.639764638009
4215.7298229693015
4225.8246265275975
4235.905461930004
4245.954186306796
4255.953624758009
4265.887343904497
4275.739521668902
4285.495754078193
4295.142301133297
4304.666388031788
4314.056358316381
4323.30146206
4332.391567802697
4341.317715411499
4350.071561175595
4358.645708551799
4367.032987553095
4375.2278539675
4383.225479455986
4391.021657723403
4398.6124761117935
4405.994746682995
4413.16530680739
4420.122040650795
4426.863048625298
4433.386911422405
4439.692994908201
4445.781061156199
4451.650738500004
4457.302686280708
4462.7377404601875
4467.957288972
4472.962994686692
4477.756577135495
4482.340306521897
4486.716905004107
4490.8890209582005
4494.859566400899
4498.631802357788
4502.209656053002
4505.597420503594
4508.798828105104
4511.817939307799
4514.658878960514
4517.3257950549005
4519.8228551296
4522.154462080599
4524.324744337603
4526.338497519398
4528.2003283306985
4529.914784562094
4531.4868703176
4532.921623990305
4534.223844318096
4535.398568089193
4536.450687367302
4537.385420972006
4538.208036829602
4538.9236593027
4539.53760053051
4540.055178771502
4540.482199882702
4540.824432311104
4541.087645817898
4541.277569378704
4541.400061807409
4541.4606079500045
4541.465070221401
4541.4191581182085
4541.328605159504
4541.198975485103
4541.035478203604
4540.843205341003
4540.628014043504
4540.395400317094
4540.1510574358845
4539.900685654305
4539.650122858689
4539.405130074191
4539.171422027892
4538.954649503798
4538.760648269396
4538.595032197903
4538.46358629709
4538.372185129302
4538.326263137596
4538.331154170208
4538.391849513902
4538.513415227103
4538.700856090802
4538.9591302141935
4539.2927400118
4539.706096875697
4540.203179289007
4540.788085668596
4541.46490937828
4542.237458924692
4543.109170060707
4544.083577027106
4545.163563140699
4546.351921192298
4547.651245715187
4549.064137505699
4550.5927230119005
4552.238986867202
4554.004923902687
4555.8925736706005
4557.903461490302
4560.038322912304
4562.2978297797945
4564.682455895991
4567.192364731806
4569.827226216801
4572.586573935699
4575.469426985508
4578.4740746220095
4581.5986564391005
4584.841625844809
4588.200838777006
4591.6742028269
4595.259202042886
4598.95314775731
4602.753022268706
4606.655759836106
4610.6577445763005
4614.7551891841995
4618.944241294214
4623.221114554096
4627.581607328798
4632.021457448796
4636.536286591801
4641.121875872493
4645.773793963204
4650.487341687094
4655.257877015301
4660.080747231301
4664.951106702303
4669.863688724296
4674.813768584183
4679.796733166895
4684.807990881414
4689.842797391492
4694.896669110093
4699.964992111791
4705.0432490978055
4710.126726422507
4715.211242129794
4720.292270267106
4725.365796860699
4730.427696101316
4735.473912387504
4740.500401452897
4745.503698693594
4750.480060018803
4755.425848575808
4760.337754382598
4765.212771040617
4770.047794249098
4774.839822509107
4779.585644109
4784.282718511201
4788.9288797596955
4793.521895834905
4798.059702492798
4802.540340731302
4806.962083344797
4811.323120809312
4815.6220456385045
4819.857645319597
4824.028673304604
4828.134135263706
4832.173625756688
4836.146328610013
4840.051589355886
4843.888690924895
4847.657052507891
4851.35621032651
4854.986026408989
4858.546176017896
4862.036634054296
4865.457271054787
4868.807857150294
4872.088606218988
4875.299687514211
4878.441505674497
4881.514666927708
4884.519602943785
4887.456863111903
4890.3272247405075
4893.131430791208
4895.870377808098
4898.544508503295
4901.155277530003
4903.703860443604
4906.191217949005
4908.618082010703
4910.985440733503
4913.293678873705
4915.543765925403
4917.736335383288
4919.872077434307
4921.951815799977
4923.97641804139
4925.946269848598
4927.862464575306
4929.725783715704
4931.537355338618
4933.298139042904
4935.008839574795
4936.670360551889
4938.283870813101
4939.850395504805
4941.370993069198
4942.846677334306
4944.2790386683
4945.6699172673025
4947.020728395905
4948.3329942006985
4949.608205326298
4950.847722802594
4952.052882818996
4953.225347737608
4954.366477342708
4955.47810136651
4956.561723764493
4957.618723610203
4958.650965797388
4959.660795752397
4960.650555506896
4961.622813321196
4962.58051329329
4963.527108304906
4964.466132275104
4965.4013006560945
4966.336760604606
4967.277001936008
4968.22737962009
4969.193650295395
4970.181753455677
4971.1979382924865
4972.2490578401985
4973.342217628205
4974.485080924199
4975.685749807902
4976.952677997508
4978.294426627301
4979.720407714411
4981.2400845316015
4982.863672961599
4984.601625951804
4986.464769503999
4988.4642174861065
4990.611811357704
4992.9194089047
4995.3989557543
4998.062917858699
5000.924161112085
5003.995549000507
5007.290364962887
5010.822104711805
5014.604063276494
5018.6493327846965
5022.970812499399
5027.581574322699
5032.494369857006
5037.721811102995
5043.276019479708
5049.168953583596
5055.411596645194
5062.014785090598
5068.988948881513
5076.3442103105035
5084.089953221591
5092.235180567201
5100.787919008191
5109.755514760396
5119.144188200905
5128.959706913502
5139.206485434009
5149.888098009804
5161.007391712495
5172.566481170099
5184.565814822087
5197.004762810404
5209.881381878318
5223.192576818403
5236.934066795997
5251.100172361792
5265.683957654601
5280.677048759001
5296.069287432985
5311.849363282488
5328.0052205285
5344.523298971301
5361.388717132195
5378.585044781699
5396.0946363054945
5413.898397473688
5431.976065860915
5450.305913546988
5468.864606152807
5487.627642135795
5506.569897179705
5525.6645914223955
5544.884013720408
5564.199429226908
5583.580961019309
5602.997710898789
5622.417810821094
5641.808401864505
5661.136007663497
5680.366179311309
5699.463308019811
5718.391913372505
5737.116137276608
5755.599679014303
5773.805698545907
5791.697260239
5809.237285221409
5826.388671443097
5843.113911643196
5859.376065759211
5875.138115751699
5890.363658217003
5905.016555782407
5919.060949266898
5932.461444106797
5945.183748943593
5957.193745039903
5968.458452475884
5978.945893044299
5988.625124705803
5997.4663633504915
6005.440673610702
6012.520255027611
6018.679208442592
6023.893144246603
6028.138934817998
6031.395379304987
6033.642717834203
6034.8630811011
6035.040085115307
6034.159320095491
6032.208265676504
6029.176195578084
6025.054142297406
6019.835968638899
6013.516955787384
6006.094431798399
5997.567353229801
5987.936907169596
5977.206004701501
5965.380066372688
5952.46609653441
5938.473445431605
5923.413284580095
5907.298480031494
5890.144250139509
5871.968053974311
5852.789055505504
5832.6285174599925
5811.509450145091
5789.456717041208
5766.497004628395
5742.658740037193
5717.971883645694
5692.467643611202
5666.179640708305
5639.1428404916005
5611.393284985715
5582.967985215803
5553.905531420299
5524.245254038004
5494.027791423508
5463.294541151801
5432.087806403105
5400.450535763807
5368.426681273289
5336.060398721094
5303.396651873691
5270.480640994301
5237.358165081202
5204.074857779191
5170.676533394203
5137.2090680692945
5103.718168916988
5070.249404822597
5036.847998470795
5003.558711695506
4970.426387298399
4937.495460138704
4904.809235455594
4872.4104127525925
4840.340859480186
4808.641226500804
4777.351129056908
4746.509323169701
4716.153029300312
4686.318489002296
4657.040526820108
4628.352459727806
4600.286243738097
4572.872477564696
4546.140172770601
4520.116904382401
4494.8287264108185
4470.300108900301
4446.55367054061
4423.610264069105
4401.489239765397
4380.208052428707
4359.7828179655025
4340.227559047798
4321.554405449406
4303.77380879901
4286.894382947002
4270.922480769695
4255.863349064103
4241.7201246293
4228.494183909604
4216.184960328396
4204.790114799997
4194.305312527801
4184.725410185599
4176.043092730409
4168.249846473206
4161.335489818399
4155.288570241191
4150.095955207104
4145.743258990894
4142.214650562711
4139.4933269017965
4137.5608735180895
4136.398267429309
4135.985355220897
4136.301032857191
4137.323112411995
4139.0282473329
4141.392199890602
4144.390293806986
4147.9971316829
4152.186484052498
4156.931781875387
4162.205670608601
4167.9809048299985
4174.230058664703
4180.92548568908
4188.039490509302
4195.5444333312
4203.412261850092
4211.615213935597
4220.125481676503
4228.915937792301
4237.95944222362
4247.2291347497885
4256.698862394392
4266.3432485355015
4276.13678228929
4286.054806752303
4296.073190626109
4306.168435394691
4316.317809906506
4326.499181559491
4336.691270185913
4346.87372570081
4357.026288755107
4367.129641973698
4377.166156934495
4387.118973775602
4396.972296197998
4406.7110924999
4416.321517037197
4425.790547635909
4435.106228356389
4444.257404274281
4453.2338810435
4462.0262608807025
4470.6265453308115
4479.0272240733975
4487.221580454492
4495.203697398402
4502.968474523397
4510.511421552416
4517.8290474775185
4524.918444028304
4531.777518581191
4538.4046079206055
4544.798210927992
4550.9577529122
4556.883523171418
4562.576129147899
4568.036535266488
4573.266444055412
4578.267837308701
4583.043194397211
4587.594976360899
4591.926187395802
4596.039951664896
4599.939893536398
4603.6298061591915
4607.1138104684915
4610.395959001597
4613.480713422109
4616.3722897537045
4619.075413155684
4621.594753053495
4623.935145973008
4626.1014476703995
4628.098465098086
4629.930785434903
4631.603599683507
4633.122321125609
4634.492026777907
4635.718030310114
4636.8058133192035
4637.760610122297
4638.587655479111
4639.292480865198
4639.880605223504
4640.357447427496
4640.7285982919
4641.000029458707
4641.177203244095
4641.265798318797
4641.271056145501
4641.198538388205
4641.053728749103
4640.842256963502
4640.569386203194
4640.240729070694
4639.861526483697
4639.436908283003
4638.972283374892
4638.473143613501
4637.944978446904
4637.393540293
4636.824249261098
4636.242339940297
4635.653114255901
4635.062132033797
4634.474849831304
4633.896373214812
4633.3323908355005
4632.788641924392
4632.270614025198
4631.783346584605
4631.3318804501105
4630.921013752199
4630.555620054702
4630.240241304697
4629.979541182598
4629.777883266101
4629.639579963898
4629.56832305251
4629.568011227202
4629.642108777609
4629.794336209003
4630.028133879009
4630.346854317896
4630.753696934496
4631.251911416895
4631.844298417398
4632.533450864704
4633.321590319098
4634.211307447902
4635.204893923693
4636.303888932402
4637.5098764548875
4638.824259457599
4640.248043994693
4641.782043632603
4643.426779259893
4645.1823424385
4647.0488466920915
4649.025862181916
4651.1126875789005
4653.308532438309
4655.612387921604
4658.022935522094
4660.538748721207
4663.157858119693
4665.878309461693
4668.697717877099
4671.613617349612
4674.623468553506
4677.7244790036075
4680.913908916395
4684.188812086096
4687.545810416199
4690.981458579413
4694.492161801617
4698.073883257295
4701.722835013003
4705.435092958797
4709.206654031501
4713.033256918117
4716.910428096698
4720.833476042104
4724.7983903293
4728.800850555994
4732.836759919102
4736.9017910705015
4740.9918872786875
4745.102890406098
4749.230673075703
4753.370962617791
4757.519887625113
4761.672985661098
4765.826709553708
4769.977723523095
4774.12264011311
4778.257974404293
4782.380302284993
4786.486200332603
4790.572820509804
4794.637214074599
4798.676309915704
4802.687422339803
4806.667844331696
4810.614930574599
4814.526404841097
4818.400104169596
4822.234165227107
4826.026905431513
4829.776530640201
4833.481712592695
4837.140961491508
4840.7531003930035
4844.316707313891
4847.8306253789
4851.294146547791
4854.706878507004
4858.068090796407
4861.377195556005
4864.633867042602
4867.838205771407
4870.990144122486
4874.089619031505
4877.136759966995
4880.131959538495
4883.075136106208
4885.966447330794
4888.806491574204
4891.596150565702
4894.336391675105
4897.027902288204
4899.671942718897
4902.269725627505
4904.822384818306
4907.331090676493
4909.797071708613
4912.221451795902
4914.605721349299
4916.950823902101
4919.25776116781
4921.527512007599
4923.76121270399
4925.959897906003
4928.124811289286
4930.257138749503
4932.358207608995
4934.428950435306
4936.470102107801
4938.482743384791
4940.4683592545
4942.428232570195
4944.363381164398
4946.274922961406
4948.1641224172845
4950.03219917749
4951.8800787689015
4953.709109439219
4955.520135016714
4957.31434152649
4959.092930983602
4960.856888275089
4962.606968133212
4964.344275106117
4966.069473492905
4967.783603082699
4969.487623348298
4971.182543533405
4972.8692617618935
4974.548833855603
4976.221758132205
4977.8894398223
4979.553273010079
4981.214719199794
4982.875529760997
4984.537794900295
4986.203643944897
4987.875250842006
4989.555089009702
4991.2461577501
4992.951336327893
4994.674092272384
4996.418739121592
4998.189521686902
4999.990929649402
5001.827699482585
5003.705027140806
5005.628409982109
5007.603883246511
5009.6374702443945
5011.735919233402
5013.906029143793
5016.154833782097
5018.490176410003
5020.920376683698
5023.454038774511
5026.100324262601
5028.868609179305
5031.768662264898
5034.810523167399
5038.004816771406
5041.362426025904
5044.894029301607
5048.611227989779
5052.5258213599
5056.649285909604
5060.993131060901
5065.569265930684
5070.389231106288
5075.464800315403
5080.807424851391
5086.428553391406
5092.339602543202
5098.551776805808
5105.075406045794
5111.921127506208
5119.098908197097
5126.618510642896
5134.489084029302
5142.7191486199845
5151.316540506594
5160.288799350296
5169.642370500295
5179.3830549617
5189.515747801794
5200.045263379505
5210.9754730841
5222.308599829796
5234.045958083999
5246.187781683591
5258.732917442905
5271.679197460506
5285.023330139504
5298.760702685804
5312.885690419115
5327.3909574764075
5342.26782356899
5357.506613910097
5373.096399633306
5389.024672074913
5405.277723218913
5421.840253338398
5438.6960743891095
5455.827327479591
5473.214910715207
5490.838492611997
5508.676579298892
5526.706893230404
5544.90601239789
5563.248902338898
5581.709684564315
5600.261334845601
5618.875568950803
5637.523144579002
5656.173986996404
5674.796943099096
5693.360024876898
5711.8305296480075
5730.175090867907
5748.360042843206
5766.350860735401
5784.11288024051
5801.610892249484
5818.809577005489
5835.673109804911
5852.165676648303
5868.25135478092
5883.8944673307915
5899.059298985486
5913.71075569672
5927.814018068395
5941.334836224796
5954.23931810401
5966.494096300494
5978.066467965001
5988.924811010211
5999.038162059708
6008.376511499999
6016.91087367739
6024.6131384130995
6031.456468860009
6037.415557235507
6042.466739247896
6046.5877003654905
6049.7575950495
6051.956927891604
6053.168150990594
6053.375280325704
6052.564340866894
6050.722885471302
6047.840425118409
6043.90855766641
6038.92093658899
6032.872393780908
6025.760090146702
6017.58276099289
6008.341304697199
5998.038658141509
5986.679723086895
5974.271217562391
5960.821983515401
5946.342528642605
5930.845498033998
5914.34569063929
5896.859865697999
5878.406505689692
5859.005862491518
5838.680176599184
5817.4534631578945
5795.3513811207995
5772.401400767795
5748.632621593893
5724.075500114302
5698.762593413098
5672.727285108393
5646.004366128301
5618.629925817507
5590.641179759793
5562.076349205388
5532.9749167386935
5503.377018245403
5473.3240511575
5442.857857165805
5412.020622373397
5380.855587571706
5349.406998275713
5317.719095602798
5285.836431788797
5253.803942336089
5221.666729123103
5189.469955658295
5157.258436063287
5125.077090521799
5092.970421787191
5060.9827615209
5029.158040739486
4997.539612194197
4966.170133627788
4935.0919094213
4904.345842493888
4873.972155236794
4844.010074567694
4814.497825675892
4785.472510077794
4756.970046418299
4729.024411441399
4701.669060145396
4674.936176010294
4648.856453589796
4623.459215401394
4598.772392601499
4574.822218020983
4551.6332372902
4529.228286455312
4507.628867338301
4486.8544579572
4466.9229483633035
4447.851182965088
4429.653506159086
4412.342298175996
4395.928025287503
4380.4191972818
4365.8226012981995
4352.143442665897
4339.384655052593
4327.547710453595
4316.632057108991
4306.634918716401
4297.552222317304
4289.378511183504
4282.106311726893
4275.726790946488
4270.229391731108
4265.602180935908
4261.831589179509
4258.902732766993
4256.79929171818
4255.503233480914
4254.995988177498
4255.257896852185
4256.267635819199
4258.0028712076
4260.440704841205
4263.556927621399
4267.326790722281
4271.724508150697
4276.723691738815
4282.297443128203
4288.418529311602
4295.0586587459065
4302.1896250764075
4309.782669213795
4317.808902382002
4326.238980098093
4335.043597452295
4344.193140652692
4353.658451548495
4363.410349757999
4373.420103734207
4383.658678472004
4394.098291079203
4404.711671779805
4415.471590389398
4426.3514100162965
4437.325196704793
4448.367101574611
4459.452151035799
4470.556191784809
4481.655632063703
4492.727792803495
4503.750840094095
4514.703539676782
4525.566009950899
4536.319172851203
4546.9445238845055
4557.424733450512
4567.743384145002
4577.885058414993
4587.835220876099
4597.580549079793
4607.108551643894
4616.407571672188
4625.467723682801
4634.279961143617
4642.835820333507
4651.128109754806
4659.150186906199
4666.896109532901
4674.361236299592
4681.541606880303
4688.43388252321
4695.035462178888
4701.344276450893
4707.358758551895
4713.078836827401
4718.504915980809
4723.638093391099
4728.479925435794
4733.032693952111
4737.298725069607
4741.281128340785
4744.983367959903
4748.4093411421045
4751.563003142508
4754.449458611712
4757.073738311197
4759.441291122799
4761.55774081789
4763.428867739278
4765.060649313705
4766.459549520907
4767.632092854788
4768.584890865403
4769.324613589299
4769.8580965286
4770.192319752504
4770.334331229712
4770.291468095612
4770.071269895385
4769.6813236378075
4769.129212342408
4768.422725225991
4767.569396284005
4766.577091846695
4765.453335377087
4764.206063529096
4762.843431155794
4761.373710399608
4759.804653629501
4758.144350261102
4756.400463208299
4754.580964136499
4752.693710789704
4750.746580528095
4748.747436014087
4746.704027646792
4744.6234358354895
4742.513065365395
4740.38075103599
4738.234474113499
4736.082089749413
4733.931091477693
4731.789170417095
4729.664119402797
4727.5635039070185
4725.494805080094
4723.465560630503
4721.4832385411
4719.555464865084
4717.6892307044
4715.891698946792
4714.169704692191
4712.529857685803
4710.9786104814
4709.522436171608
4708.167056090205
4706.918441854006
4705.781849687099
4704.761958858299
4703.863712795
4703.092079976691
4702.451336852398
4701.945735030292
4701.579358496395
4701.356124607002
4701.279671536209
4701.353156996091
4701.579510177601
4701.961310626806
4702.500960658697
4703.200559140196
4704.061905648607
4705.086360134303
4706.274969711096
4707.627963218607
4709.145583533005
4710.827690172592
4712.67360419099
4714.682321598197
4716.852470913601
4719.181701125803
4721.668075707316
4724.309253076806
4727.102430941495
4730.0446267724055
4733.132657781297
4736.362857388618
4739.731179361895
4743.233443225677
4746.865388398604
4750.622112021109
4754.498776201186
4758.490578027195
4762.592116864788
4766.7979723606
4771.102399760016
4775.499494643101
4779.983262005104
4784.547583769488
4789.185733862699
4793.891562046295
4798.658582252196
4803.479811462411
4808.348650602701
4813.258614749811
4818.2029913905935
4823.175365840709
4828.169228209308
4833.178181761496
4838.195933470096
4843.216800775993
4848.234752657392
4853.243657130494
4858.238297471195
4863.213917460201
4868.165444801207
4873.0878680026
4877.976279998511
4882.8257392138
4887.631802634803
4892.389742518401
4897.095230242093
4901.744471620514
4906.333552697295
4910.858153473309
4915.315122799205
4919.701231276882
4924.013614848302
4928.249276118493
4932.405681079899
4936.4802555092
4940.4707958255985
4944.375202687201
4948.191766956605
4951.918594448302
4955.555056796382
4959.1003062049
4962.553439236993
4965.913927322199
4969.181534441701
4972.3557173748995
4975.436344441693
4978.423372536702
4981.316989643091
4984.117719973499
4986.825957249004
4989.442241695785
4991.967652317699
4994.40322698821
4996.75013838901
4999.0101029506095
5001.184821589493
5003.276183697509
5005.2860185212085
5007.2167873309045
5009.07079417409
5010.850406069189
5012.5587356948
5014.199318028417
5015.775593953697
5017.291402568518
5018.750554479008
5020.157176064915
5021.515849928408
5022.8315823209
5024.109533754607
5025.355211099915
5026.574261891383
5027.773000941198
5028.958595124002
5030.138430600799
5031.320801884596
5032.514131395301
5033.727411884602
5034.969987258793
5036.2517858879955
5037.583097522506
5038.974842523198
5040.437862506589
5041.984112634007
5043.625666220308
5045.374763579995
5047.243731453
5049.245433343912
5051.392754086499
5053.699275570208
5056.178526736898
5058.844384060301
5061.710711199604
5064.791547286493
5068.101133571803
5071.653678492512
5075.463394855804
5079.544774180908
5083.911809875495
5088.578312723786
5093.55816863129
5098.864648847505
5104.5109157960105
5110.509395484399
5116.872246607214
5123.611685438984
5130.7393088740855
5138.265545571917
5146.200559049492
5154.553377274909
5163.332357444894
5172.544867255805
5182.197382456696
5192.2952098979
5202.8429151814
5213.843079585399
5225.297580768603
5237.207375602889
5249.572318512016
5262.391020338507
5275.660725146807
5289.377559462185
5303.536463815508
5318.130782090487
5333.152623533395
5348.592682426815
5364.440419139586
5380.684038797398
5397.309911019602
5414.303128247709
5431.647622926804
5449.325632187704
5467.317921902508
5485.604209359992
5504.162293292701
5522.969033349283
5541.999676439302
5561.227758008185
5580.625899508103
5600.166136165601
5619.819030242597
5639.554112034602
5659.339904570309
5679.14420292581
5698.933704064488
5718.6742552580945
5738.331071952707
5757.86846025651
5777.250212371796
5796.439403841693
5815.398559194489
5834.090180642504
5852.476468708699
5870.519041969001
5888.179853971621
5905.420904455502
5922.204112679307
5938.4914844450095
5954.245467327196
5969.428199185987
5984.003134873892
5997.934171657904
6011.1857550077975
6023.722925731896
6035.511988545907
6046.519837510904
6056.7145632126
6066.065455008704
6074.543147629603
6082.119334685302
6088.767650912894
6094.463268631492
6099.182816382601
6102.904117646802
6105.606598913792
6107.271346544705
6107.881378256988
6107.421520530113
6105.878102419891
6103.239727430885
6099.496665040498
6094.640891135801
6088.666572271523
6081.570136674587
6073.350028865496
6064.006639772401
6053.542247596202
6041.961336706597
6029.270152325202
6015.477430235508
6000.593849896681
5984.631849699705
5967.60638142649
5949.534645396497
5930.435189504007
5910.3285018096985
5889.237056604998
5867.185125045896
5844.198808567594
5820.305622317604
5795.534739268811
5769.917134562704
5743.4853751077035
5716.272880215395
5688.315119534398
5659.648783014105
5630.311970785098
5600.3435588869
5569.783819436707
5538.673798548197
5507.055731694393
5474.972580215793
5442.46822723079
5409.58676522781
5376.373965060895
5342.875845028405
5309.138609054593
5275.2085919808005
5241.132414226078
5206.956113711891
5172.726132777808
5138.488601333005
5104.289642255703
5070.175259034099
5036.190451300799
5002.379562083301
4968.7872266648
4935.457122200307
4902.432193683099
4869.754797409995
4837.4662105318
4805.606774083196
4774.215494915501
4743.330380082002
4712.987977651906
4683.223500561194
4654.071210444992
4625.564124672099
4597.7331937430035
4570.608053656906
4544.216567521402
4518.584960490182
4493.738015195899
4469.698833095307
4446.488382082197
4424.1260684019935
4402.6291992792985
4382.013626076507
4362.293595527292
4343.481307768788
4325.587160909003
4308.619922982295
4292.58644105521
4277.491421658304
4263.337948730802
4250.127421131482
4237.8593393198025
4226.531327618402
4216.139881179204
4206.679710622892
4198.143780352302
4190.523136628108
4183.807211742296
4177.983614893898
4173.038701180198
4168.957335739408
4165.7231272714
4163.318345812493
4161.723641966798
4160.918541130105
4160.88190906922
4161.591808788594
4163.025454543616
4165.159011526301
4167.967655079698
4171.4258545597995
4175.507536507112
4180.18615057901
4185.434332806404
4191.224532156392
4197.529165380498
4204.320335124802
4211.569501129397
4219.248466497899
4227.328518952487
4235.781001486504
4244.577272626995
4253.688912119204
4263.087423803506
4272.744601228202
4282.632175522817
4292.722530955109
4302.988794832302
4313.404792790692
4323.944684304812
4334.583469690304
4345.296954019298
4356.061703424101
4366.854864849601
4377.654322729392
4388.4386578443
4399.187588466798
4409.882073445905
4420.5035618607935
4431.034532214293
4441.458443537096
4451.759513552603
4461.9225697945985
4471.933796542801
4481.780018333293
4491.449155871406
4500.9298577534055
4510.211206720911
4519.283195071804
4528.137386893314
4536.765789050305
4545.161348630498
4553.317815705884
4561.22989822551
4568.892849505904
4576.302547355213
4583.455553863903
4590.349155387594
4596.981253444398
4603.350281153105
4609.455164894898
4615.295488750902
4620.871534455991
4626.183609939391
4631.232485076599
4636.019428646986
4640.545931190892
4644.813827516301
4648.8253927349015
4652.582803573313
4656.088949727508
4659.346961964705
4662.360304641203
4665.132508209808
4667.667537714302
4669.969225615189
4672.0418080849995
4673.88958285709
4675.517283817403
4676.929532534291
4678.131383258704
4679.1283848409985
4679.926091033903
4680.529835028805
4680.945079216709
4681.177358837311
4681.232495949199
4681.116491852409
4680.835201737891
4680.394766230102
4679.801317854698
4679.060722160301
4678.179160463007
4677.1631557133
4676.019076521008
4674.753483276701
4673.372750774903
4671.88344797971
4670.292170628304
4668.605711864303
4666.830902835105
4664.9744880481085
4663.043876637393
4661.046633426988
4658.989680018698
4656.8802741284135
4654.725719177599
4652.533283388117
4650.310446343896
4648.064375443199
4645.802224084001
4643.531359946494
4641.2589745316955
4638.991705156903
4636.736900429702
4634.501546876298
4632.292617562608
4630.116747647694
4627.980722369891
4625.891175589607
4623.854713306808
4621.877420920002
4619.965500223699
4618.124595096814
4616.360992866897
4614.680462773905
4613.088376104899
4611.590002094908
4610.190569072897
4608.894544630695
4607.7065867944
4606.630830754802
4605.671304370498
4604.831863444409
4604.115936776401
4603.526614296107
4603.067382610792
4602.7409860508005
4602.549715527392
4602.495901028013
4602.581287656992
4602.807317010494
4603.175065348298
4603.685509400595
4604.33925459232
4605.136457291687
4606.077240695704
4607.161976670582
4608.390260867891
4609.761433691212
4611.274214974106
4612.926948301392
4614.717886892001
4616.645131573392
4618.706179473402
4620.898350281002
4623.218313263206
4625.662774224794
4628.228742761004
4630.912557897198
4633.710532335218
4636.619065105907
4639.634172861489
4642.751730056699
4645.967693115998
4649.277783725603
4652.677648181892
4656.162542589593
4659.728325780207
4663.370802669604
4667.085569578815
4670.867852831798
4674.7131328748055
4678.616575257203
4682.573629366197
4686.579557893207
4690.629640638801
4694.719192070884
4698.843759423612
4702.998897005906
4707.180545668205
4711.384668716899
4715.607416011605
4719.84505750681
4724.093700162585
4728.349847461505
4732.610211188898
4736.871621396403
4741.1309632097955
4745.38542372481
4749.632685469296
4753.870505959999
4758.096211316687
4762.307633340797
4766.502567164909
4770.678944113105
4774.834494662313
4778.967396460611
4783.075552175403
4787.157085560693
4791.209604760699
4795.231099474501
4799.220079417995
4803.175386419192
4807.095783004108
4810.980332887394
4814.828179325812
4818.638736340484
4822.41132022459
4826.145294081408
4829.839980245989
4833.495111804385
4837.110446012195
4840.6853506579
4844.219544114799
4847.712748907997
4851.164773623706
4854.5753169131995
4857.944574621414
4861.272486425694
4864.55907555161
4867.804117112394
4871.0072294070105
4874.168261554004
4877.287474205592
4880.364734830602
4883.400284670896
4886.394123937088
4889.346643653498
4892.257917287906
4895.1282854212
4897.958225173696
4900.748359719082
4903.499238522201
4906.211291715798
4908.884942866997
4911.521176411003
4914.121288309602
4916.686437230302
4919.218038389183
4921.71761677071
4924.186813667506
4926.627661080201
4929.042319185894
4931.432754992698
4933.801898085899
4936.152759942403
4938.489213214908
4940.815778464707
4943.137291814712
4945.458615932981
4947.785077076602
4950.122090797101
4952.47589002159
4954.852892831402
4957.260296206596
4959.70582049261
4962.197972905804
4964.745792404287
4967.358865226009
4970.0470584398945
4972.820802500294
4975.690834864396
4978.668026486094
4981.7641873518105
4984.9912307629
4988.361187172594
4991.886924560981
4995.58189352979
4999.459575329076
5003.533843418602
5007.818300132603
5012.327043448903
5017.074097719204
5022.073693062093
5027.340054532313
5032.8871261564
5038.728831575405
5044.8797507172185
5051.353630473494
5058.163876450001
5065.323467000088
5072.8449533387975
5080.740413685994
5089.021363290007
5097.698580906307
5106.782436837493
5116.2824914031025
5126.207049912091
5136.564007225815
5147.360247446289
5158.6017194972155
5170.293199556303
5182.438580779104
5195.040446338593
5208.100270539807
5221.617961416696
5235.592788284191
5250.022243141498
5264.9028218761005
5280.229229949211
5295.994790890513
5312.191226692196
5328.809071245698
5345.836884225292
5363.26221284461
5381.071024390514
5399.248106634903
5417.776848888605
5436.638736534096
5455.813436527503
5475.279836296007
5495.014843631206
5514.993935098403
5535.191506824401
5555.58053543429
5576.132730315913
5596.818649980988
5617.607798396793
5638.468280146113
5659.3671692150965
5680.2704241145075
5701.143217389091
5721.949683544185
5742.653306131905
5763.216627186999
5783.601645614297
5803.7698348356025
5823.682480451798
5843.3000112769105
5862.58252744589
5881.489554996491
5899.980861567896
5918.016487076304
5935.5563972784985
5952.560948543712
5968.9909065936
5984.807410131494
5999.972275117504
6014.447845818006
6028.19713071338
6041.184007544994
6053.373031692595
6064.730103854991
6075.222305603598
6084.817749425807
6093.485682568593
6101.1972572061995
6107.924769481493
6113.642127464192
6118.324636884695
6121.949310833095
6124.494481683302
6125.940593379498
6126.269874617801
6125.466642618306
6123.517170946499
6120.410299460606
6116.136728436303
6110.688870565808
6104.061466933801
6096.25155231629
6087.258105882301
6077.08243987961
6065.727840242589
6053.199807825805
6039.506289630991
6024.657097096101
6008.664889832191
5991.544433165007
5973.312121326193
5953.986087010398
5933.58683728689
5912.136434150501
5889.658937715603
5866.179793707094
5841.726758899708
5816.329252619095
5790.018783563299
5762.828266823222
5734.792459267607
5705.947222213897
5676.330259452809
5645.980447991388
5614.93790930299
5583.24393348571
5550.940931230795
5518.072221978
5484.682316936824
5450.8162696276895
5416.520002997791
5381.839984718911
5346.822893891589
5311.515958629601
5275.966687712204
5240.222867590401
5204.331963958194
5168.34143160089
5132.298786707208
5096.25174070631
5060.2473176217
5024.332300203603
4988.552821780795
4952.954567390107
4917.582592002298
4882.481274049989
4847.6939715164
4813.263374490506
4779.231101608492
4745.6379345071855
4712.523411336308
4679.9259512708995
4647.882428819508
4616.428064701699
4585.596939995106
4555.421731361603
4525.9335490891
4497.161869740603
4469.134798392908
4441.878220157891
4415.416726738903
4389.772920384295
4364.967862446001
4341.020851899617
4317.949382781008
4295.768824500591
4274.4930649923135
4254.133825933908
4234.701437599896
4216.203744541199
4198.646965102003
4182.03532579219
4166.371601824906
4151.65654208611
4137.8893347413195
4125.067244873893
4113.186322749191
4102.240632249301
4092.222578339595
4083.123020779706
4074.9309956381076
4067.6338683953063
4061.2180151858056
4055.6685214751
4050.9692747386002
4047.1028786790034
4044.0505127080937
4041.792693301018
4040.309081876809
4039.5780675319947
4039.576999718492
4040.282428783499
4041.6698118271047
4043.714255858897
4046.3900719076064
4049.6710515998043
4053.5304462051954
4057.9413690272036
4062.876728049896
4068.308971188105
4074.2103825430795
4080.5533118766984
4087.3098243776017
4094.452020978704
4101.952387971812
4109.78351572791
4117.918192821201
4126.329496284301
4134.991134124891
4143.877054489594
4152.9616986330075
4162.219710459903
4171.626697976001
4181.158727271993
4190.792628674097
4200.505687353996
4210.275967767207
4220.08242861051
4229.905248666099
4239.724795087711
4249.522717240294
4259.281158514405
4268.983364318302
4278.6135129104
4288.156731927689
4297.599022265815
4306.927680487102
4316.130547021921
4325.196361085209
4334.114964118205
4342.877089084192
4351.474178631991
4359.8983319199
4368.142453835799
4376.200522074406
4384.067138544104
4391.737353761599
4399.2070831317
4406.472525423203
4413.530521277893
4420.378503877189
4427.014647250393
4433.4374153493045
4439.646074467202
4445.6399362065995
4451.4187912026
4456.982661149802
4462.331925955489
4467.4673715029885
4472.38985052359
4477.100565464205
4481.601419373705
4485.894217620589
4489.981013359495
4493.864191018803
4497.546220677092
4501.029785375306
4504.3174791877045
4507.412252747317
4510.317275085303
4513.035938925702
4515.571235323593
4517.926729991811
4520.105940765399
4522.112381089201
4523.949436051705
4525.620983510399
4527.130440085098
4528.481496359303
4529.677552857697
4530.722487244703
4531.620013786891
4532.374262631107
4532.989189302108
4533.46909901641
4533.818427355396
4534.042027224004
4534.14432044439
4534.130124789211
4534.004372069799
4533.7723377811035
4533.4393100588995
4533.01042420121
4532.491099474795
4531.887157720201
4531.204428746899
4530.4486481349995
4529.625776564597
4528.7423935545
4527.805072964302
4526.8201187868
4525.794127937608
4524.733325805488
4523.644293993008
4522.533626815608
4521.4077624645915
4520.273053930698
4519.136076970503
4518.003198588501
4516.880881808799
4515.775827375895
4514.694551019106
4513.6434729658995
4512.629036353095
4511.657542496099
4510.735319637598
4509.8685794885
4509.063094673191
4508.324858057404
4507.659609056606
4507.072969956691
4506.570028926193
4506.15607760101
4505.8360041862015
4505.614476436201
4505.495630856794
4505.483706544397
4505.5822657341
4505.795048822093
4506.125157048796
4506.575548554106
4507.1486995511
4507.847181512099
4508.672807219601
4509.627490336499
4510.71269737449
4511.929784478594
4513.279558384404
4514.762630615904
4516.379008995701
4518.128851210106
4520.011759175008
4522.026664834113
4524.172530504401
4526.448197894898
4528.851919868002
4531.381706382804
4534.035363959199
4536.8104067364075
4539.704139066205
4542.713435214405
4545.834948105489
4549.065001734198
4552.399993159901
4555.835786235603
4559.368063459001
4562.992322721797
4566.703929290714
4570.4980979219945
4574.370120855108
4578.3150526569025
4582.328031395894
4586.404013482805
4590.537851975394
4594.724588752805
4598.959348942096
4603.237060255795
4607.552391101809
4611.900095922791
4616.274866867406
4620.671741876405
4625.085740722692
4629.512270427316
4633.9467346467945
4638.384919699508
4642.822338559005
4647.255044738209
4651.678929809591
4656.090418952797
4660.4856013555955
4664.860826226596
4669.212312918698
4673.536781986697
4677.8308593484935
4682.091466430698
4686.315521534509
4690.500580461701
4694.643913117404
4698.743245453286
4702.796370437997
4706.801669660111
4710.757327193892
4714.661620869105
4718.513119964008
4722.310656440805
4726.05312711011
4729.739398984213
4733.368542930502
4736.939947638599
4740.452926452016
4743.907019382889
4747.302096067294
4750.637829875097
4753.914198490891
4757.13113665161
4760.288668076394
4763.386891722304
4766.426289062815
4769.407145619403
4772.3297276942885
4775.194508359301
4778.002119994607
4780.753197676497
4783.448479529692
4786.088647099994
4788.674633046596
4791.207241620099
4793.6870222928055
4796.114854555592
4798.491941993892
4800.8193675683015
4803.097963676199
4805.328856155515
4807.513158898903
4809.651998443999
4811.746217178717
4813.796957090006
4815.805025793902
4817.771512067003
4819.697324842204
4821.583502024703
4823.430824790408
4825.240250893106
4827.012622398387
4828.748950145184
4830.450082840723
4832.117096359708
4833.75090927241
4835.352811631493
4836.924010550114
4838.465923598596
4839.979847585197
4841.46685898401
4842.928134915302
4844.365175993003
4845.779548973198
4847.172685810097
4848.546268405396
4849.9021853108015
4851.242319533493
4852.5686135876
4853.883472455602
4855.189260971701
4856.488839176208
4857.785132613101
4859.081567595999
4860.3817354061075
4861.689680190495
4863.00980303479
4864.347156678492
4865.707075078998
4867.0957079998825
4868.519404168198
4869.985038964297
4871.500154489908
4873.0729114074
4874.711692468603
4876.425161033198
4878.222800771292
4880.114709000609
4882.11140983069
4884.223559546202
4886.462316566309
4888.83933644971
4891.366799375097
4894.057041684788
4896.9230366241045
4899.977753760215
4903.234920028486
4906.707954023112
4910.410646891292
4914.3567244498
4918.560162560006
4923.034824259604
4927.794780448998
4932.853709144297
4938.225534618795
4943.92373460611
4949.961810991599
4956.352997717998
4963.110470201799
4970.2465663336925
4977.773234443311
4985.701797368495
4994.043248100594
5002.807758067504
5012.004580342287
5021.6425845093
5031.730026993802
5042.273848219411
5053.280066401603
5064.753733458903
5076.6986738291935
5089.117900139196
5102.013169209299
5115.384690328493
5129.2315627348
5143.551531749306
5158.340972208805
5173.595049390405
5189.3073949742
5205.470276478311
5222.074410727905
5239.109188524592
5256.5623778681
5274.420401716713
5292.668362367111
5311.28934005851
5330.265154955902
5349.576264780201
5369.201642716695
5389.118556348305
5409.3032770810005
5429.730631482407
5450.374150009305
5471.205636057405
5492.195963126401
5513.314612100094
5534.530313825397
5555.810216274808
5577.120612647694
5598.426593977191
5619.692600510791
5640.8820010242025
5661.957673942004
5682.881356728106
5703.614497494298
5724.117925680209
5744.352290158205
5764.277589547907
5783.854040367096
5803.0414256364975
5821.799430769194
5840.088009037402
5857.867409784898
5875.097826187896
5891.739869586392
5907.754519510308
5923.103213876703
5937.7481368671
5951.6523097145155
5964.779881702904
5977.095973997984
5988.566756265613
5999.159525726404
6008.842753100503
6017.586173505796
6025.361115871686
6032.140285463695
6037.898029652097
6042.610194287489
6046.254368376497
6048.809833504699
6050.257726698903
6050.580911016199
6049.764461325185
6047.795294161699
6044.662079127706
6040.356046114886
6034.87027403329
6028.199918249805
6020.341969218585
6011.2956398516035
6001.062325136895
5989.645551637303
5977.050735884893
5963.285758875601
5948.360337107491
5932.286568082985
5915.078223196297
5896.7514440702935
5877.324154673901
5856.816519979504
5835.250275255901
5812.6494205836025
5789.039322437589
5764.447398070281
5738.902670543402
5712.4360679331085
5685.080084315508
5656.8691202472
5627.838697332799
5598.025754372698
5567.468664284112
5536.207231120189
5504.282248315904
5471.7355352345
5438.610067205195
5404.949956463905
5370.7999710553095
5336.205524326491
5301.212759802806
5265.8682842778935
5230.219356352307
5194.313345742879
5158.198031124181
5121.921111808401
5085.5304101142965
5049.073605237794
5012.598612444389
4976.152754546801
4939.783174561596
4903.53655774251
4867.459139068791
4831.596592324897
4795.994153244495
4760.696190762102
4725.746029838696
4691.18635515781
4657.059005616688
4623.404635511483
4590.262550117391
4557.670967716788
4525.666842478911
4494.285712166596
4463.561515506494
4433.526787600799
4404.212283726099
4375.647557214489
4347.860068769595
4320.875970051001
4294.71962325391
4269.413634619197
4244.978768319413
4221.434153905891
4198.796616131194
4177.081525383003
4156.302244418399
4136.470363714118
4117.595633630202
4099.686319689382
4082.7485001306154
4066.7863841273975
4051.8025396283924
4037.79789537869
4024.771281020101
4012.719816768789
4001.63904615729
3991.523013087694
3982.364094136091
3974.1529048375082
3966.878569871201
3960.528758067581
3955.0898787103088
3950.546551758787
3946.882387981913
3944.079505948506
3942.1186185001884
3940.979583885313
3940.641163253795
3941.0807152744073
3942.2749890490904
3944.199628198398
3946.8296165705992
3950.1393977700923
3954.1028142466944
3958.6930010166016
3963.8824998452965
3969.643516247894
3975.9479847980915
3982.767470252504
3990.073090657004
3997.836110498807
4006.027628840696
4014.618843992904
4023.5809180378046
4032.8852893792982
4042.503466248289
4052.407598051489
4062.569636613808
4072.962378940098
4083.558722038009
4094.3322363452967
4105.256868670207
4116.307270949412
4127.458334749203
4138.685984220895
4149.9664720204055
4161.277145595802
4172.5960910301
4183.902358844398
4195.175660313097
4206.396660370904
4217.546924421295
4228.609272442408
4239.567012054413
4250.404353071697
4261.106560001394
4271.659957415895
4282.051762429704
4292.270037061706
4302.3037833340995
4312.142854953902
4321.778049619605
4331.200484852791
4340.4021869613
4349.376014063603
4358.1155534065
4366.614947678405
4374.869094650701
4382.873189450403
4390.623219735403
4398.1157718877
4405.347894063594
4412.317084298404
4419.021651963699
4425.460222334098
4431.631742085703
4437.536000422103
4443.173142605006
4448.543604148513
4453.648106943503
4458.487909352098
4463.064584675802
4467.380049168203
4471.436271092904
4475.235789904405
4478.781187333301
4482.075572131389
4485.121857556003
4487.923663098199
4490.484683712192
4492.8089048341035
4494.90033195361
4496.763720663791
4498.403486143793
4499.824616386995
4501.032113475402
4502.031169768592
4502.826957896112
4503.425409149809
4503.8321595802045
4504.053204212001
4504.094838618514
4503.963605678004
4503.666074686688
4503.209006814701
4502.599070301686
4501.843498786402
4500.949677288606
4499.925104860103
4498.777492671392
4497.514603809092
4496.144278619497
4494.674233813996
4493.112515492717
4491.467325115983
4489.746788835108
4487.959195516902
4486.112940755802
4484.216253620508
4482.277638055805
4480.305554107094
4478.308438751218
4476.294770712206
4474.273095865797
4472.251629496396
4470.238665175996
4468.242842890913
4466.272594701091
4464.336215617692
4462.441626400709
4460.596763267203
4458.809420963806
4457.0873120328
4455.4377520376975
4453.868240897404
4452.385739567411
4450.997117826393
4449.708732878608
4448.527086746592
4447.4580468653985
4446.507346487611
4445.680040934798
4444.981189802602
4444.415215909304
4443.98639428859
4443.698297910303
4443.554462064712
4443.557947768299
4443.711881370809
4444.018519998909
4444.479793969597
4445.097151122198
4445.871905660504
4446.8046149036945
4447.895455883492
4449.144311593898
4450.551089143195
4452.114969025005
4453.8345948931055
4455.708442935006
4457.734523038997
4459.9106094595045
4462.233914591304
4464.701341932398
4467.309559081997
4470.0547973452
4472.932966451995
4475.939978368303
4479.0712487758
4482.3220296202
4485.687337083107
4489.162153978397
4492.741164417607
4496.419191302996
4500.190726936804
4504.049920986304
4507.991050996389
4512.008665143404
4516.097210933199
4520.251015436597
4524.4644283077
4528.732021841896
4533.0484282123
4537.408088930901
4541.805740272491
4546.236065003303
4550.694078458298
4555.174495453402
4559.672473973803
4564.183237968507
4568.702092098507
4573.224320300698
4577.7455620530955
4582.261361318205
4586.767737157905
4591.260640989299
4595.736325379206
4600.191057622603
4604.621707279794
4609.024946862192
4613.3978067268945
4617.737639653608
4622.042017172201
4626.308538112688
4630.534915820707
4634.719039013108
4638.859244020701
4642.953957330301
4647.001666460109
4651.001149960496
4654.9514818815005
4658.8519549637085
4662.701755488702
4666.500462844997
4670.2478350558085
4673.94369673271
4677.587883039593
4681.180649526594
4684.721891543204
4688.211757902599
4691.650513673694
4695.038339235308
4698.375516756494
4701.662701503301
4704.9003178654
4708.088891054994
4711.229281552608
4714.322309533195
4717.368818671999
4720.369570174795
4723.32543910891
4726.237466011599
4729.106736898984
4731.934128193008
4734.7208685218
4737.467954229013
4740.176642569999
4742.8479059630945
4745.482978670504
4748.082950546497
4750.6488982462
4753.181656732597
4755.682636643499
4758.152545949194
4760.592428094105
4763.003152599713
4765.385672435795
4767.740677818908
4770.069278031187
4772.372024467005
4774.649805143594
4776.903548792606
4779.134341069793
4781.3432054385885
4783.531114572702
4785.698771798793
4787.8474398688
4789.978092119996
4792.091651553098
4794.189221837995
4796.271954787008
4798.341159529695
4800.398029990909
4802.443935668897
4804.480553511705
4806.509493005396
4808.532595781102
4810.552124227402
4812.570487998895
4814.590485783901
4816.6149788795965
4818.647124851097
4820.690392992705
4822.748905796999
4824.8270232283085
4826.929551796509
4829.061915035104
4831.229870869506
4833.4397326228045
4835.69801132629
4838.0118521400045
4840.389049707779
4842.837870593612
4845.366751808503
4847.984641210112
4850.7008676386085
4853.525502837811
4856.468607826409
4859.540973755604
4862.753531359106
4866.117699060696
4869.644975878
4873.347423266912
4877.236953939609
4881.326036366806
4885.626882593091
4890.152093343999
4894.914145463509
4899.925992693095
4905.20028132609
4910.749712228103
4916.586831620797
4922.72441429428
4929.174663987409
4935.94948336589
4943.060466707594
4950.519075216712
4958.336089375401
4966.521625617195
4975.085335287016
4984.036402597809
4993.383317113301
5003.133604461612
5013.29423045541
5023.871025056507
5034.868932279283
5046.291991279296
5058.143321166101
5070.424822179701
5083.137277266107
5096.279902743403
5109.851017373494
5123.847604499601
5138.265471102693
5153.099103993822
5168.341638819605
5183.984929294193
5200.0195970139985
5216.434720356407
5233.218036577996
5250.355947316197
5267.8337752842
5285.6355021630025
5303.743226183891
5322.1378498888935
5340.798953260906
5359.704870755904
5378.8323981291
5398.157433806515
5417.654372115702
5437.296425467803
5457.055411904891
5476.902072408092
5496.8058140469
5516.735298500698
5536.657863841512
5556.5404573413
5576.348865783098
5596.048471395004
5615.603673386591
5634.97832625979
5654.135906125612
5673.039490404206
5691.651526001493
5709.934374281492
5727.850026161207
5745.360775383894
5762.428760352194
5779.016040475415
5795.0849895339
5810.598630939403
5825.5201937422
5839.813270613692
5853.442296860816
5866.372207411302
5878.568793481901
5889.998609284204
5900.629377990014
5910.429822069504
5919.369605097099
5927.419549671217
5934.5518478861
5940.739942682603
5945.958957944211
5950.185457032497
5953.397385826196
5955.5746445870045
5956.698963949503
5956.753610749895
5955.723749448109
5953.596388186003
5950.360533002983
5946.007217894409
5940.529084779596
5933.921103048982
5926.180174491203
5917.305375073307
5907.297547539891
5896.160009810105
5883.897968051996
5870.51881555441
5856.031593729493
5840.447887968006
5823.780978539203
5806.046237381999
5787.260777528717
5767.444061582701
5746.616853560988
5724.802296546999
5702.025055374692
5678.311702287097
5653.690690912199
5628.192493454208
5601.848879621101
5574.6934569829955
5546.761011133402
5518.088133514801
5488.712646480416
5458.673507466
5428.01091383681
5396.766351747403
5364.982257044198
5332.701966249594
5299.969876771099
5266.831097622993
5233.3312137144
5199.516172594792
5165.432612747796
5131.127537122202
5096.648244053194
5062.042037446602
5027.356494094789
4992.63887312501
4957.9365161430915
4923.296314285101
4888.764808334191
4854.388314851297
4820.212681344491
4786.282843007001
4752.643081181389
4719.336993183795
4686.407501923103
4653.896406361485
4621.84428762569
4590.2907342675035
4559.274132083603
4528.8318551966995
4498.999555933601
4469.811700014969
4441.30110018469
4413.499106833806
4386.435409554893
4360.138188219704
4334.6338098693
4309.946988695396
4286.100211412494
4263.114664417093
4241.009302110792
4219.801509110992
4199.506521559098
4180.137883159201
4161.706991397204
4144.223775356396
4127.695990321107
4112.129456480007
4097.528264819905
4083.894920671291
4071.229915122296
4059.531904993193
4048.7976201709025
4039.0221286964966
4030.198742530898
4022.319029450411
4015.372877220099
4009.3486088894997
4004.232806757
4000.0105856943023
3996.665671275495
3994.1804358137933
3992.5361451072085
3991.7124460101068
3991.6879628500024
3992.4400144274905
3993.944801424097
3996.1774390330006
3999.112027302198
4002.721871047794
4006.9797069097094
4011.857626727799
4017.326964199697
4023.3586084852095
4029.9231699684115
4036.9906840031977
4044.5305482830004
4052.512265895202
4060.905164475683
4069.6788151287988
4078.8024089182923
4088.245474191606
4097.977682707902
4107.968976409796
4118.1893468413955
4128.609471192992
4139.200304477705
4149.933453645399
4160.7806034028
4171.7148130635
4182.709652560298
4193.739401970184
4204.7788027002025
4215.803488098903
4226.7898749704
4237.715485962301
4248.558583241595
4259.298545097908
4269.915599341601
4280.391432992997
4290.708590067098
4300.850611397307
4310.802324069999
4320.549659806203
4330.079461449609
4339.379409283608
4348.438550232006
4357.2469191588925
4365.795667688401
4374.076803949401
4382.083416906199
4389.809498252299
4397.250038769294
4404.400663516403
4411.2581575416025
4417.819730335097
4424.083545901496
4430.048219851907
4435.71311502029
4441.078329574595
4446.144906902099
4450.914257132602
4455.388393348609
4459.569782404292
4463.461565620803
4467.067186151804
4470.390408873497
4473.435588685999
4476.207609686911
4478.711643698599
4480.953119686092
4482.938173640708
4484.67305814321
4486.164260541993
4487.418347666692
4488.442329068605
4489.243384523609
4489.829161597207
4490.207006890198
4490.384854708292
4490.370418679296
4490.171548990088
4489.796120409903
4489.252074179887
4488.547312621998
4487.6902167782055
4486.688877274813
4485.551519270202
4484.286482716191
4482.902310804302
4481.407515232392
4479.8105605414
4478.119815954306
4476.343871877291
4474.491341713796
4472.570683890985
4470.590624337205
4468.559755913301
4466.486564615798
4464.37944206641
4462.247014185706
4460.097727881197
4457.940306987808
4455.782949524499
4453.633972166599
4451.501448517005
4449.393328492198
4447.317363108896
4445.2812227516
4443.292339625998
4441.358423267793
4439.486853506314
4437.684739237903
4435.959014829404
4434.316582948601
4432.764008589203
4431.3075972946
4429.953603838902
4428.708013845901
4427.5767828747985
4426.565352052895
4425.679184581996
4424.923387612909
4424.302774761103
4423.821887731599
4423.485228526386
4423.296848574705
4423.260807152705
4423.380104699397
4423.657771865921
4424.096315924009
4424.698194648808
4425.465193818004
4426.399118591902
4427.501032710097
4428.7719096768005
4430.212374880709
4431.822544868505
4433.602270552689
4435.551421232001
4437.668953802203
4439.953775522904
4442.404354533402
4445.018826992596
4447.795080809208
4450.730469809114
4453.822162046992
4457.067109956301
4460.461834000704
4464.002386931105
4467.684836684402
4471.504932997095
4475.458336312104
4479.540121069588
4483.745416640714
4488.069020924899
4492.505344697497
4497.048579410997
4501.692862821996
4506.431779174703
4511.259283673589
4516.169063758195
4521.1546639669095
4526.209687719597
4531.32790158119
4536.502752828893
4541.7276604625
4546.996177562493
4552.301759986885
4557.6382227607155
4562.99907939921
4568.378049673098
4573.7689313195
4579.1657679215
4584.562612132497
4589.953718550112
4595.333304314504
4600.696046618496
4606.036234219201
4611.34894577589
4616.629151089802
4621.872166887686
4627.073261692992
4632.2281144972085
4637.332308374398
4642.381975070099
4647.373074390201
4652.302057537316
4657.165360958785
4661.959990266406
4666.682931353007
4671.3315442436815
4675.903330540506
4680.396257220695
4684.808496295206
4689.138283097085
4693.384114596702
4697.5449144262075
4701.61975672321
4705.608036914003
4709.509370845813
4713.323422460394
4717.050163151088
4720.689494076099
4724.241774896514
4727.707412998289
4731.087067558296
4734.381433225895
4737.5912209468925
4740.717375192689
4743.761243533809
4746.724064766493
4749.607185069501
4752.412082015902
4755.140407280607
4757.793729160201
4760.373876269094
4762.882655659307
4765.321913523904
4767.6937386390055
4769.999958481704
4772.242855803996
4774.424668533901
4776.547586550896
4778.613636855494
4780.625191310603
4782.584470140093
4784.493926157482
4786.3557742029025
4788.172718422794
4789.947100999204
4791.681524367314
4793.378308480204
4795.040030632989
4796.6689876516975
4798.268118652401
4799.840080795195
4801.387643340603
4802.9136122557
4804.421512203597
4805.914836813197
4807.397177069
4808.872145089102
4810.343737404104
4811.815886900889
4813.292832390499
4814.7791148206015
4816.279764382795
4817.799942421409
4819.345213920306
4820.9217978738
4822.536300362591
4824.195696324991
4825.907011533193
4827.678115290605
4829.517197000894
4831.432807791302
4833.433897018294
4835.529980795701
4837.7308741962925
4840.046953566622
4842.488834865901
4845.067467173095
4847.794089450404
4850.680629680005
4853.739232727386
4856.982242895306
4860.4223927147905
4864.0726401167885
4867.946091329406
4872.055785964295
4876.415061367189
4881.037185633002
4885.935414772994
4891.122856981708
4896.612839864806
4902.41835230451
4908.5523993250945
4915.027358952308
4921.855348005995
4929.047832940198
4936.616295548194
4944.57131490169
4952.923214076199
4961.68149509799
4970.855208744093
4980.452315158507
4990.4802570473
5000.9453751054825
5011.853667645407
5023.209817456894
5035.017437835295
5047.279040901492
5059.996256902904
5073.169338118813
5086.797371011199
5100.878310102791
5115.408792295893
5130.383917963604
5145.797604582803
5161.642459204001
5177.9098209319045
5194.589529864906
5211.669784927592
5229.137563669697
5246.978362186014
5265.176262940411
5283.713675588699
5302.571615124901
5321.729652863982
5341.1661355179085
5360.858138557798
5380.7813979983985
5400.910173141505
5421.217750070911
5441.67610684001
5462.255905492914
5482.926967729288
5503.658115553602
5524.417033073598
5545.170248854988
5565.883622571507
5586.522058974107
5607.049734647784
5627.430046612492
5647.626218108207
5667.600793390594
5687.3158728128965
5706.732843607803
5725.813359843206
5744.51873838101
5762.810437380193
5780.649658139482
5797.997920324608
5814.816780514711
5831.068298575205
5846.714693592788
5861.719046653307
5876.044619161004
5889.6558396388955
5902.517874332385
5914.596850495593
5925.859805208391
5936.275041059492
5945.811865063404
5954.440812498298
5962.133960162397
5968.8648554882075
5974.608372231597
5979.340975451706
5983.040811000408
5985.687772381799
5987.2633812974045
5987.750785540395
5987.135538612891
5985.404901689097
5982.548129242713
5978.556295497507
5973.4225584744045
5967.141883033497
5959.711405424202
5951.130090275801
5941.399163771799
5930.521789481211
5918.503403673707
5905.351309828197
5891.07500202912
5875.686022214796
5859.197917062508
5841.626119861509
5822.988044570995
5803.303100014898
5782.592702196111
5760.879964626109
5738.189730269202
5714.548856664806
5689.985805048393
5664.530703959691
5638.21495325259
5611.072098628895
5583.136782425198
5554.445101451984
5525.0342404558005
5494.942645504301
5464.209773823183
5432.876482792189
5400.984378548696
5368.576004780413
5335.694516433002
5302.384180522293
5268.68959424199
5234.655945960897
5200.328736720304
5165.753959399307
5130.977745080398
5096.046412856696
5061.006393392
5025.904063417591
4990.785427534409
4955.696260901304
4920.682228060905
4885.788439480892
4851.05946055279
4816.538870670898
4782.269844233905
4748.294886399608
4714.6556614174915
4681.392533113305
4648.545139437483
4616.151772500594
4584.2496114348005
4552.874568374702
4522.061283714502
4491.842750951702
4462.250958613297
4433.316261800795
4405.067511225909
4377.532045071006
4350.7356507921
4324.702440048999
4299.454710291392
4275.013281226688
4251.39734196999
4228.624099635295
4206.708876943691
4185.6656615543025
4165.50643515229
4146.241517427202
4127.87904213071
4110.425651484305
4093.886076249017
4078.2634559555986
4063.5587623565957
4049.7717157866105
4036.9000730355015
4024.9401990599054
4013.8865447985017
4003.732183853892
3994.4683731230075
3986.0854931033014
3978.572138809396
3971.9156344933913
3966.1018045825085
3961.1153548838925
3956.939614189203
3953.556609032189
3950.9473369712055
3949.092033197202
3947.9695777326097
3947.558071995803
3947.8350455068894
3948.777192993885
3950.3604279477004
3952.559915934904
3955.350397199286
3958.7062993945938
3962.601663221892
3967.0099429187994
3971.904752875193
3977.259179864701
3983.046230659906
3989.2389003199964
3995.8102079399
4002.7331304723084
4009.9812733390972
4017.528254576305
4025.347912974895
4033.4146580027978
4041.7033838288
4050.189470357493
4058.8486996069037
4067.657437889504
4076.5927798553953
4085.6323414219837
4094.754345589102
4103.938112636183
4113.163765762794
4122.412065211398
4131.664169113999
4140.902672230194
4150.110781902797
4159.2726581533
4168.373046612689
4177.397937058301
4186.333958929206
4195.168802125798
4203.890752719598
4212.489160115291
4220.9540510509
4229.276418838205
4237.447536405387
4245.459928999404
4253.306812760894
4260.9824289346025
4268.481623526408
4275.799838556897
4282.933152221015
4289.878630735993
4296.633709712904
4303.196331494806
4309.564881433183
4315.738201489997
4321.715561415707
4327.496462683199
4333.081053339201
4338.469842782409
4343.663659499003
4348.663401888004
4353.470358400593
4358.086176112998
4362.512732663604
4366.751789613707
4370.805415515903
4374.67572471299
4378.3652134599915
4381.876343577306
4385.211725241401
4388.374083075304
4391.366540843205
4394.192242379894
4396.854256771511
4399.356096344504
4401.7013974985975
4403.893616165097
4405.936206129202
4407.832817711108
4409.5870647932015
4411.202906143003
4412.683939397404
4414.034244397204
4415.257888953594
4416.3590050685
4417.341484870001
4418.20972714729
4418.967978856498
4419.620694937494
4420.172094907402
4420.626664866797
4420.988617159896
4421.2627387666935
4421.453467718605
4421.565594477297
4421.6037862814965
4421.573203912396
4421.478953000512
4421.326173076402
4421.120064666903
4420.866319767401
4420.570354126589
4420.237677556504
4419.873945367294
4419.484944740412
4419.076485617996
4418.654251598695
4418.2241689752
4417.7923507513915
4417.3648920502
4416.947622636995
4416.5466666345865
4416.168079331999
4415.817805900908
4415.501560296407
4415.225097865102
4414.993926525208
4414.8138847104
4414.690472359497
4414.6290455056005
4414.634806472402
4414.712863542608
4414.868248948297
4415.105787467189
4415.430069153604
4415.845781973409
4416.3571388373875
4416.967962515605
4417.68213948949
4418.503143350095
4419.434288961793
4420.478369820103
4421.638220093199
4422.9162235044
4424.314685609107
4425.835180202484
4427.479316151303
4429.248274118184
4431.143016517295
4433.163759037304
4435.3105745313005
4437.5830670662035
4439.980868842605
4442.502943955403
4445.1481962264
4447.915021815607
4450.801982128388
4453.807044377502
4456.927776943096
4460.161437760797
4463.505382916997
4466.956424599395
4470.511167836696
4474.166204911895
4477.917853945104
4481.762119802694
4485.694759374497
4489.711458356796
4493.807656063294
4497.97873094661
4502.2197255063065
4506.525707735799
4510.891890695686
4515.313488536404
4519.7854204304
4524.302767013194
4528.860235314109
4533.452913020098
4538.075894522597
4542.7241099965
4547.392510427699
4552.076487380995
4556.7714073294
4561.472645101483
4566.175968858307
4570.877200202106
4575.572267398096
4580.2570884345905
4584.927713578604
4589.580493349997
4594.211964188703
4598.8184958381935
4603.39703935679
4607.944591464584
4612.458400334902
4616.935474338107
4621.3733977816
4625.769749179796
4630.122384267694
4634.429012805101
4638.687587614289
4642.8958138428925
4647.052202672395
4651.155132436006
4655.203315834293
4659.195540994603
4663.1311148561035
4667.009140568293
4670.829020871886
4674.590197622307
4678.292447631893
4681.935621576305
4685.5196496465
4689.044462192698
4692.510412061197
4695.9178504589045
4699.267088169299
4702.55875672239
4705.793458570506
4708.9718614962085
4712.094583386092
4715.162330138806
4718.1763317276
4721.137993483306
4724.048223909796
4726.908125637199
4729.7184820407
4732.4803803774985
4735.194744089101
4737.862522792497
4740.484645620397
4743.062259382103
4745.596517157406
4748.088594371807
4750.539741010796
4752.9512351955045
4755.324405003406
4757.66036505669
4759.960261360195
4762.22533480641
4764.456761091195
4766.6555386356
4768.8231033053935
4770.960753534395
4773.069933531016
4775.151640121699
4777.207094934506
4779.2373833506845
4781.243694371596
4783.226864759792
4785.188032797112
4787.127866382197
4789.047572792909
4790.947934655189
4792.829901547194
4794.6943613985995
4796.542627794697
4798.375642861507
4800.194648137287
4802.000821286214
4803.7957700870975
4805.580904568502
4807.357794182494
4809.128207330099
4810.8943608591035
4812.658648669
4814.423517900992
4816.191766043397
4817.966607426508
4819.751317853397
4821.549244916102
4823.364373251906
4825.201215854505
4827.064627877696
4828.95985332409
4830.892722573007
4832.869108232098
4834.89576399831
4836.979642371593
4839.128197341397
4841.349257529399
4843.651229780904
4846.042927921598
4848.533590509803
4851.132931675284
4853.851182851998
4856.69884667599
4859.6868604443025
4862.826440395106
4866.129149071805
4869.606949067606
4873.2715862373925
4877.135434276597
4881.211215879995
4885.511733285107
4890.049574948897
4894.837699723403
4899.888738050395
4905.215464579899
4910.830272874503
4916.745539954804
4922.973120028697
4929.52511210409
4936.4129067290005
4943.647578908103
4951.239844641595
4959.200165527194
4967.538269449699
4976.263482887415
4985.384131475615
4994.907970475003
5004.8417889319
5015.191628888806
5025.962557436299
5037.159048585016
5048.784256455681
5060.840016107202
5073.327454803598
5086.246519789498
5099.595855217386
5113.3728817384
5127.5736469678895
5142.192828231303
5157.224099169598
5172.659715296392
5188.490522835117
5204.70603678791
5221.2945018115115
5238.242588666204
5255.535806633998
5273.157881039899
5291.091400367299
5309.317587356589
5327.816173139892
5346.565869630791
5365.544143484616
5384.726992988199
5404.089225729593
5423.6044645188
5443.2452034026965
5462.982706689399
5482.786971418296
5502.627565532311
5522.473202270103
5542.291441627103
5562.048860881003
5581.7114585993995
5601.244336289996
5620.612391361604
5639.779410782403
5658.709123246188
5677.364644927997
5695.7089445586835
5713.704716812989
5731.314832279107
5748.501721089706
5765.228377851792
5781.457754928587
5797.153033858712
5812.277778136298
5826.796209902089
5840.672678621395
5853.872632530594
5866.361995863018
5878.1078339935
5889.077924678198
5899.240791945506
5908.566348437509
5917.025697119205
5924.591061566104
5931.236033027497
5936.935543247491
5941.666264806293
5945.406550324009
5948.135848216306
5949.835478136708
5950.488437107594
5950.0794981404
5948.595403514499
5946.0248050296
5942.358050612202
5937.587590728199
5931.7078348444065
5924.71524208571
5916.608440687392
5907.3881807861935
5897.057235934291
5885.620317351902
5873.084194478507
5859.457775495089
5844.752039831795
5828.979704992999
5812.155870382195
5794.297398081506
5775.423299330598
5755.5540938072
5734.712352191003
5712.922438772408
5690.210586815203
5666.604391839594
5642.13350075949
5616.828718026497
5590.7228209099985
5563.849578370209
5536.244382695207
5507.943509266004
5478.984838659495
5449.4070539583945
5419.250229915805
5388.5552311694055
5357.364017515482
5325.719063170203
5293.663697436709
5261.2417129629885
5228.4978502345
5195.476997390899
5162.2241313231
5128.784699422913
5095.2044654327965
5061.5290873532995
5027.804149693708
4994.075145335495
4960.3873062667035
4926.785541466894
4893.314092327316
4860.016769351893
4826.936803274801
4794.116776948902
4761.598246192802
4729.422077621502
4697.6280405548
4666.255104471897
4635.341183960996
4604.922951907207
4575.035737320497
4545.713745107499
4516.9895233234
4488.894239523302
4461.457659859893
4434.708117091892
4408.6723221011
4383.375139077203
4358.840191984205
4335.089384598274
4312.142792369699
4290.018655604979
4268.7336075575095
4248.302441481196
4228.738169961405
4210.051864323699
4192.253049919495
4175.3493838305
4159.346947683189
4144.249637381702
4130.0598848910995
4116.778068793107
4104.403041154597
4092.9320492460006
4082.3606712654964
4072.682716484904
4063.8908113400917
4055.9756768605
4048.926678203106
4042.732010858106
4037.3784414071083
4032.8512630456194
4029.134358583212
4026.2106049989097
4024.0619862566
4022.6691285103125
4022.0116494781046
4022.068270547496
4022.8166580164047
4024.2338328063006
4026.2960603365086
4028.9790264445846
4032.2578773517034
4036.1074895427946
4040.501933238401
4045.415077642801
4050.820231957494
4056.690518821903
4062.999232522194
4069.7192635412052
4076.8236282510916
4084.2855374737956
4092.077951234002
4100.174185990592
4108.547971026605
4117.1733025985
4126.024632046288
4135.076477418404
4144.304126429307
4153.683286795493
4163.190215525398
4172.801631827098
4182.495231943687
4192.249114436208
4202.042525666402
4211.854824426801
4221.666582321687
4231.458991999401
4241.214284387387
4250.915323044901
4260.546245357707
4270.091449066103
4279.536676766193
4288.868333972598
4298.074042814407
4307.142122244394
4316.06205842271
4324.823864047905
4333.418815033299
4341.838714304599
4350.076542629506
4358.125713281687
4365.980189262699
4373.634954342405
4381.085758742591
4388.328795553101
4395.361170364797
4402.180538287319
4408.785190431995
4415.173859072209
4421.345412778292
4427.299249534202
4433.035293233497
4438.553809529904
4443.855243253298
4448.940610119621
4453.810933496304
4458.467555580502
4462.912139376398
4467.1466849134
4471.1735004408
4474.995195169299
4478.614400111798
4482.0338817693955
4485.256639461707
4488.285846036102
4491.124738214394
4493.7765042011015
4496.244824858205
4498.533448716906
4500.646220827109
4502.586908873801
4504.359677935293
4505.968563679805
4507.417971077189
4508.711989301196
4509.854990605803
4510.851311972099
4511.705597233913
4512.422226181989
4513.006016039207
4513.461452572988
4513.793284215004
4514.0062078944
4514.1050811346
4514.094760067896
4513.980573391916
4513.767551208399
4513.461086971705
4513.0665210446
4512.589744565695
4512.0365565299935
4511.412730309302
4510.72427086911
4509.977396075011
4509.178124413405
4508.332621590602
4507.4474674597095
4506.529377709402
4505.584845331398
4504.6203157794935
4503.642359845806
4502.657604116695
4501.672597091697
4500.693775148809
4499.7277079354
4498.780686104093
4497.859232392188
4496.969841218506
4496.118749832799
4495.312263902002
4494.5566288009
4493.857774298803
4493.221644828311
4492.654252808093
4492.161390119994
4491.748860737704
4491.421830347307
4491.185283436406
4491.044183766706
4491.003475960699
4491.067727982704
4491.241582348196
4491.529287663398
4491.934967479801
4492.4619783420985
4493.113943605491
4493.8938421368075
4494.8045915327975
4495.848576294496
4497.028161534708
4498.3448288650925
4499.800061872894
4501.395032145104
4503.130515212093
4505.007017069306
4507.025041206
4509.183997374299
4511.483449952793
4513.922539002794
4516.500243828194
4519.215071066391
4522.065070181707
4525.0480854915
4528.161906820609
4531.403765544394
4534.770529636806
4538.258922608601
4541.865424707001
4545.5862616594995
4549.417276197401
4553.3543062978015
4557.3929562457115
4561.528584326009
4565.756043001498
4570.070220562398
4574.465688860301
4578.937067907403
4583.478968174497
4588.085824525906
4592.751815972695
4597.471277836699
4602.238192875099
4607.046740143696
4611.891224428601
4616.765956317497
4621.665154148203
4626.582864706499
4631.513626612086
4636.452114913998
4641.392924053811
4646.330549561703
4651.259889064395
4656.175985214802
4661.074200543501
4665.949665220203
4670.79794276819
4675.614628280289
4680.395697395201
4685.1369523152
4689.834940131107
4694.485951507809
4699.086660852693
4703.633765454088
4708.1243917824
4712.555679209498
4716.9253738345005
4721.231074023001
4725.470731500201
4729.6425108505055
4733.745017949802
4737.776862121002
4741.736878858198
4745.624085216694
4749.437946052108
4753.1778756093945
4756.843284169991
4760.433848027403
4763.949623733587
4767.390919663514
4770.7580207765
4774.051497806092
4777.272004953804
4780.420336907294
4783.497322267804
4786.504077988302
4789.441516818405
4792.310798042792
4795.113156637395
4797.849928950109
4800.522647583796
4803.133067615797
4805.682883051905
4808.174070638998
4810.608647634803
4812.988821345895
4815.316807814793
4817.594500303691
4819.824319548192
4822.008745562498
4824.150222389898
4826.251002042589
4828.313605510895
4830.340568882298
4832.334631083612
4834.298119758301
4836.233553067407
4838.143332726606
4840.030233012997
4841.896530888407
4843.744798417797
4845.577223616795
4847.396162304292
4849.2035738091945
4851.00151292479
4852.791833563085
4854.576584775315
4856.357555494996
4858.136659969403
4859.915501050393
4861.696047587909
4863.480026806997
4865.268908466303
4867.064155015703
4868.867477457691
4870.680257792812
4872.503667473488
4874.339135414001
4876.188025825591
4878.05163316671
4879.931122309309
4881.827671872211
4883.742367091499
4885.676514037509
4887.631014851694
4889.607019158798
4891.605722402099
4893.628490459204
4895.676607852182
4897.751565019497
4899.854967364895
4901.988852741392
4904.1551570410065
4906.356184828508
4908.594456700686
4910.872925810594
4913.194760684605
4915.563261996793
4917.982160904595
4920.455912740496
4922.989315706404
4925.587264523302
4928.2551063381015
4930.998572156997
4933.823903881904
4936.7374324007815
4939.746158840906
4942.8572676167105
4946.078458015392
4949.41744489769
4952.882548671596
4956.482141781003
4960.22513840419
4964.120500526097
4968.1773579392075
4972.404877902703
4976.8128588018035
4981.410685361394
4986.208333178901
4991.215775655803
4996.4432387705065
5001.900715427108
5007.59796213531
5013.544813050411
5019.75124516489
5026.226817890009
5032.98065547602
5040.021476767296
5047.358073077303
5054.998889682885
5062.951749499418
5071.224158344202
5079.823051834799
5088.754747715908
5098.0246640697005
5107.637644214506
5117.597749162112
5127.908398620595
5138.572106076995
5149.590464893104
5160.964061442497
5172.692568016289
5184.774579446917
5197.207720256397
5209.988624064008
5223.113044871809
5236.575467526199
5250.36906441199
5264.486115419104
5278.917687443097
5293.65362642119
5308.6822335701945
5323.990942657601
5339.5660080791995
5355.392566370606
5371.454419324502
5387.734436357707
5404.214003480604
5420.873789303497
5437.692862735607
5454.64962158659
5471.721060592291
5488.88339726089
5506.1116229577965
5523.380091942306
5540.661871321899
5557.929609532199
5575.154781994206
5592.308476440391
5609.36102606049
5626.282346141682
5643.0414261477135
5659.607037184797
5675.947410940411
5692.03081226661
5707.8250794467995
5723.297680542492
5738.4160002494045
5753.147660879517
5767.4603522746975
5781.321846791403
5794.70025284381
5807.56403767229
5819.882309617706
5831.624502033414
5842.7607093865045
5853.261622126594
5863.098624119003
5872.2439124084985
5880.670646095791
5888.352895944398
5895.265882317397
5901.385741192106
5906.689920664104
5911.157125110919
5914.767447852888
5917.502358041502
5919.344691236895
5920.2789804937975
5920.291359367301
5919.3693397012
5917.501768458495
5914.679402221192
5910.894775623789
5906.142187805698
5900.417596784495
5893.718888808804
5886.0454308614135
5877.3987361636955
5867.7816658669035
5857.199109047706
5845.657733189192
5833.166004011495
5819.733864157899
5805.373163876908
5790.097326811791
5773.921764776909
5756.863453394202
5738.941693276799
5720.177074343307
5700.591882074502
5680.209817107406
5659.055985208394
5637.1569521703
5614.540852388298
5591.236930477394
5567.2757930998005
5542.6893712478895
5517.510682406895
5491.773741383481
5465.513555882913
5438.765989907204
5411.567721573489
5383.956491424611
5355.970390058098
5327.648313680106
5299.0295886494005
5270.153927980292
5241.061362798497
5211.7921318842045
5182.386620372286
5152.885573546797
5123.3295270644985
5093.759074549704
5064.214592482813
5034.736442142504
5005.364538566398
4976.13803902889
4947.095750468904
4918.276154605893
4889.716994993891
4861.455113047092
4833.52682135299
4805.967353090496
4778.811067337203
4752.091092117102
4725.839717263201
4700.088046315395
4674.866169286289
4650.202502100398
4626.124513297588
4602.658120922307
4579.827994750886
4557.657163495495
4536.167334115309
4515.378386758309
4495.3091189018
4475.976374521191
4457.395812917093
4439.581387826598
4422.545590112612
4406.299081303307
4390.850878568097
4376.208438471104
4362.37784163012
4349.363387487414
4337.167829859695
4325.792352963992
4315.236906601503
4305.499748542903
4296.5774456945
4288.465364388702
4281.157396962994
4274.645935969294
4268.92192875709
4263.975010135602
4259.793513877007
4256.364637398997
4253.674183359105
4251.706921843796
4250.446426909498
4249.87534103711
4249.975167971701
4250.726631912508
4252.109590160797
4254.103283936208
4256.686093598295
4259.835583332704
4263.529021611097
4267.743220666504
4272.454542089906
4277.638745283892
4283.2714584227
4289.328236257304
4295.784304733897
4302.614429205911
4309.793809812007
4317.297352020707
4325.100197751109
4333.177292027901
4341.504168551515
4350.056418757798
4358.810145167807
4367.741407718893
4376.827116779591
4386.044314108301
4395.370865268198
4404.784844663705
4414.265238922896
4423.791502324198
4433.344083908203
4442.9037317647935
4452.452074892995
4461.9716150124
4471.4457981475025
4480.858667607507
4490.195044510301
4499.440629298208
4508.582324941709
4517.607528897007
4526.504576628906
4535.262737141013
4543.871987153501
4552.3232898099
4560.6083118130055
4568.7196414997015
4576.65050188409
4584.394960590199
4591.947650137512
4599.304176256805
4606.460465387596
4613.413103680003
4620.159285979606
4626.696897129788
4633.02436525839
4639.140840491804
4645.045654146998
4650.738545235911
4656.21990273349
4661.490694468496
4666.551865471717
4671.404656730301
4676.050818954804
4680.492432046905
4684.731843578212
4688.771473890395
4692.614172830487
4696.262720441003
4699.720541326096
4702.990713791289
4706.0766563113975
4708.981943430103
4711.710278962993
4714.265237752698
4716.650908404692
4718.871093708699
4720.929908861913
4722.831290633303
4724.579451816297
4726.178421747801
4727.632749693702
4728.94658443071
4730.124164699609
4731.169904106808
4732.0883947239945
4732.8839347562125
4733.560929087613
4734.123730053402
4734.576991441611
4734.9253172661065
4735.1732724708945
4735.325550200791
4735.386879084409
4735.362033837301
4735.255763853314
4735.07303828651
4734.81877401669
4734.4979611599065
4734.11551478841
4733.676431115708
4733.185710949589
4732.648558709701
4732.07005376951
4731.45546693809
4730.809956851901
4730.138855200195
4729.447407430905
4728.740751698591
4728.024170525702
4727.303199158809
4726.583307385895
4725.869687443998
4725.167705405306
4724.482765209593
4723.8201206391
4723.184520796698
4722.581055390097
4722.014669200804
4721.490581682909
4721.0136858734995
4720.588948478504
4720.221108359606
4719.914867988391
4719.6743200143055
4719.503783346494
4719.407598594189
4719.39003486911
4719.454529520785
4719.604785112586
4719.844003495196
4720.175541486089
4720.602371315793
4721.127164886402
4721.7523869832
4722.480648868203
4723.313988995501
4724.254087982901
4725.302434646401
4726.460705635793
4727.7299872363
4729.111035959383
4730.604537608908
4732.210674843104
4733.929368712896
4735.760274361691
4737.7027450758
4739.755868432488
4741.918652651594
4744.189592808008
4746.566923781094
4749.048656947092
4751.632658188293
4754.316417018001
4757.09733911461
4759.97249116301
4762.938815990891
4765.993042784194
4769.131747005095
4772.351459315299
4775.648688531196
4779.019719425797
4782.4605172027
4785.966936507902
4789.535048963313
4793.1607919451035
4796.8396810547065
4800.567654309097
4804.340321633207
4808.153456374599
4812.002717853008
4815.883791453193
4819.7922245673135
4823.723884281305
4827.6744017070905
4831.639698843401
4835.615598611699
4839.598069882793
4843.582721834402
4847.565487377094
4851.542072163701
4855.508903772893
4859.462274688202
4863.398629636205
4867.314680920095
4871.2076031172055
4875.074393505894
4878.912078332386
4882.717743249193
4886.489011463895
4890.2236332963785
4893.919373449504
4897.574364230586
4901.1868881887995
4904.755214228402
4908.277702178905
4911.753105369304
4915.180190409007
4918.557873238198
4921.885080003805
4925.161137225902
4928.385326552718
4931.557168011493
4934.676028945897
4937.741363521083
4940.752764187893
4943.7100529177005
4946.6131247553
4949.462089797882
4952.257366258805
4954.999575800302
4957.689250564402
4960.3267577128
4962.912660769599
4965.4477214005
4967.932884117696
4970.3689436109025
4972.7569322981035
4975.097736088098
4977.39260070629
4979.6424672521935
4981.848686849407
4984.012388224998
4986.1348241706055
4988.217175012202
4990.260913468018
4992.267113606588
4994.237236791288
4996.172202045395
4998.073395084301
4999.9420093262015
5001.779624966979
5003.587522748309
5005.367224897592
5007.119916730697
5008.847435545302
5010.551308697109
5012.2329844534825
5013.894137167306
5015.536545829087
5017.1618377519935
5018.7719885321885
5020.36882221501
5021.954433549307
5023.531171647501
5025.101470945699
5026.667889955891
5028.233470916712
5029.801290613997
5031.374540996712
5032.956837655312
5034.551899599001
5036.163886574315
5037.797068491301
5039.45614768741
5041.145998389902
5042.871935182898
5044.639640916494
5046.454964525895
5048.324302653505
5050.254526313207
5052.252631235183
5054.325741418292
5056.481509515799
5058.727981227092
5061.073523165202
5063.526811903307
5066.096864080196
5068.792772188896
5071.624058756506
5074.600190239188
5077.731075003203
5081.026616169904
5084.497134046498
5088.152739810397
5092.003832878896
5096.060663234397
5100.333520438999
5104.832365193
5109.567431624197
5114.548236839284
5119.7844664667
5125.285376051404
5131.060024823903
5137.117251601088
5143.465687437701
5150.113244428398
5157.067292736592
5164.334580596612
5171.921752522905
5179.834485156195
5188.077796421395
5196.656303041202
5205.573726169903
5214.833035240299
5224.436232495603
5234.384475673488
5244.678023597393
5255.316364714797
5266.297738754592
5277.6196262326
5289.2785614145905
5301.269947091397
5313.587928124203
5326.225829431706
5339.175451172591
5352.427785767696
5365.972691395301
5379.798822923996
5393.893758045807
5408.244200977018
5422.835336323403
5437.651362522094
5452.675517289107
5467.890067459692
5483.276075427509
5498.813308730902
5514.480809924897
5530.256581637495
5546.117868462591
5562.040813171608
5578.001123992801
5593.973503447192
5609.932051828201
5625.849766848206
5641.699282577404
5657.452314895311
5673.080270650888
5688.553624060403
5703.842886655119
5718.917898065982
5733.7486331582
5748.304618167405
5762.555499609903
5776.470808858504
5790.020449235414
5803.173961532398
5815.901163249499
5828.172098137997
5839.957567087896
5851.228415844287
5861.955921042407
5872.112022168105
5881.669506125016
5890.601759635303
5898.882954770011
5906.488141469795
5913.393220875912
5919.575107789603
5925.011717327312
5929.682263192897
5933.567144216496
5936.6480066270005
5938.907626733412
5940.330312890987
5940.9016388553855
5940.6087061428025
5939.440101571882
5937.385923614715
5934.4379103051
5930.5895225741015
5925.835664682306
5920.172794512391
5913.599211045191
5906.115093895692
5897.722270701003
5888.42410029222
5878.2259139330135
5867.1344112377965
5855.158117653607
5842.3069211789025
5828.59269862551
5814.028839998402
5798.630504626096
5782.4141599027
5765.398156382906
5747.601642152997
5729.045632826092
5709.7523178656065
5689.745676609704
5669.050836772608
5647.694584936791
5625.704521926292
5603.1096827432
5579.940056995799
5556.227068012279
5532.002937841309
5507.300934992106
5482.155073471701
5456.600613358102
5430.673264413103
5404.4092290726885
5377.845253743303
5351.018748039412
5323.967422442114
5296.729331902806
5269.342837075099
5241.846361126602
5214.278436983401
5186.677660745395
5159.08270482399
5131.532016188214
5104.063685015699
5076.715186376301
5049.523891575794
5022.526553749395
4995.759474785494
4969.258122845401
4943.0572275770965
4917.1907973808065
4891.692265521003
4866.594013827987
4841.927370044194
4817.722694198012
4794.009480667108
4770.815920275593
4748.168778741101
4726.093856280118
4704.615634252993
4683.757414583309
4663.540983464687
4643.986969829995
4625.114471816403
4606.94122192121
4589.483181465592
4572.755114060602
4556.770462458004
4541.541130863901
4527.076923428
4513.386527290489
4500.476611387599
4488.352742805208
4477.01860124279
4466.476418911292
4456.726956476792
4447.769667428799
4439.602327941201
4432.221303320102
4425.621483052802
4419.7967052085005
4414.739271772601
4410.439935407186
4406.8882217559
4404.0726181239
4401.980393707903
4400.597602880606
4399.909192613213
4399.899111686018
4400.550388490404
4401.84493785379
4403.763980234596
4406.287885683405
4409.396240877806
4413.067605418612
4417.280255348083
4422.0117143799
4427.239162327199
4432.939186257697
4439.087931125883
4445.661269996806
4452.634871202611
4459.984112949405
4467.684236432813
4475.710425265013
4484.038067683189
4492.642425629301
4501.498673632695
4510.582350256311
4519.8691217509895
4529.335177706501
4538.956882106892
4548.711166778501
4558.5751525296
4568.526762529792
4578.544002714801
4588.605879901506
4598.691981646386
4608.7825286896
4618.858018838994
4628.900198924691
4638.890998448999
4648.813486712606
4658.651201994804
4668.388522585207
4678.010696907917
4687.504214094601
4696.855763946406
4706.053132155297
4715.084890111397
4723.940975769284
4732.611849141804
4741.0886191273985
4749.363288042004
4757.42883474619
4765.2788221289975
4772.907695827393
4780.31067097161
4787.4836947178055
4794.423362283189
4801.126635995601
4807.591387881506
4813.816310400713
4819.800417420599
4825.543169203095
4831.044874445103
4836.305987626704
4841.3275166596095
4846.110906465587
4850.6578022773
4854.970379001701
4859.051322716387
4862.903474587304
4866.529944579598
4869.934134166103
4873.119844287891
4876.091021459993
4878.851660917804
4881.406215860604
4883.759099134402
4885.915151218997
4887.879114266191
4889.655937651607
4891.250634382393
4892.6684447307925
4893.914282403505
4894.993424390192
4895.911028351608
4896.672442359805
4897.282539941119
4897.7468502061065
4898.070688894706
4898.2598118633005
4898.319742324602
4898.256057642008
4898.074108165398
4897.779865482001
4897.3787939619915
4896.876503887396
4896.278831599807
4895.591853785399
4894.8212506455075
4893.972915883212
4893.05245145471
4892.065852904387
4891.019166081189
4889.918293930998
4888.769214186802
4887.578076923408
4886.350719338289
4885.093158318498
4883.811402238998
4882.511451953192
4881.19940882999
4879.881015762995
4878.562323437991
4877.249240148395
4875.947465246097
4874.662854035505
4873.400987352092
4872.167382330402
4870.9679532699865
4869.808476957698
4868.694320244996
4867.631135941393
4866.624417118195
4865.67939026049
4864.801202758193
4863.994997504196
4863.265808000092
4862.618617043601
4862.0579793530005
4861.588579704307
4861.2147355622055
4860.9407117292
4860.770291174896
4860.707322612204
4860.755428801599
4860.918275815489
4861.198801839195
4861.600254555311
4862.125300917512
4862.776399186793
4863.55571371582
4864.465230491399
4865.506363101304
4866.680673422397
4867.989340454302
4869.433354073903
4871.013344434702
4872.730035320111
4874.583535355696
4876.5738664824885
4878.700787428287
4880.963765267103
4883.362110983605
4885.894657428094
4888.560074059305
4891.3569414662
4894.2834051332
4897.337316400108
4900.516480990098
4903.818441455702
4907.240628090217
4910.779806826593
4914.432866153092
4918.196403734906
4922.066884283791
4926.040449170408
4930.113043499203
4934.280485830399
4938.538819871502
4942.883728506607
4947.310613895484
4951.8148260732005
4956.391805839594
4961.036796902104
4965.744911940803
4970.5111549505045
4975.330624796611
4980.198650277301
4985.1101608725
4990.060266788794
4995.044073201804
5000.056790115694
5005.093506907096
5010.149645884393
5015.2205266910905
5020.3016590983
5025.388363326594
5030.476286462888
5035.560709529495
5040.637330727596
5045.701661719494
5050.749238996693
5055.7756664345015
5060.776952759396
5065.74874940169
5070.686969450803
5075.587587221785
5080.4469153398995
5085.261336402293
5090.027433089692
5094.741813834998
5099.4013217547
5104.002851147199
5108.543173392299
5113.019521326006
5117.429376029291
5121.770304732213
5126.039760096297
5130.235699485397
5134.356115904397
5138.399061269485
5142.362624135791
5146.245396348913
5150.045780890803
5153.762536798607
5157.394413926593
5160.940137906493
5164.398696622685
5167.769542787702
5171.051827463401
5174.244998582188
5177.348765187198
5180.362931034513
5183.287373785988
5186.1220859668065
5188.867179904897
5191.522901262795
5194.089857744906
5196.568518185808
5198.959574810218
5201.263884529908
5203.482354066812
5205.615557763795
5207.664579365997
5209.630044456692
5211.512785148694
5213.313760745193
5215.03443963241
5216.6759182847945
5218.2397091825
5219.7271537917195
5221.13970747569
5222.4789821410095
5223.746969510797
5224.9449818040985
5226.074701243808
5227.137874537707
5228.136653984898
5229.07305935249
5229.9494567050015
5230.767909369393
5231.530804718304
5232.240707060703
5232.899924644301
5233.511061445998
5234.077045519216
5234.600596595991
5235.084659766498
5235.532509327704
5235.9474476253945
5236.332960815508
5236.692853252489
5237.03113476251
5237.351847384103
5237.659393409684
5237.958222458695
5238.25302610139
5238.548931969592
5238.851662958302
5239.1670732856965
5239.501465927499
5239.8615824757035
5240.254702988298
5240.688344999903
5241.170099295903
5241.708047728884
5242.310614763001
5242.986659880795
5243.745098692199
5244.595271251496
5245.546800108195
5246.6095893016845
5247.793543754206
5249.109092517592
5250.566687423017
5252.177120000103
5253.950995493292
5255.899433970211
5258.033184830805
5260.363490171894
5262.9012299485985
5265.6574437524005
5268.642973809288
5271.868814258293
5275.345639348805
5279.083934879985
5283.093716644403
5287.385023388005
5291.9673490474
5296.850030800307
5302.04181413481
5307.551135665705
5313.385671472009
5319.552520450203
5326.0581307502
5332.9084097174
5340.10858250389
5347.663221581586
5355.576197303313
5363.850385668209
5372.487810905209
5381.489479075584
5390.855568423808
5400.5851291055
5410.676352487598
5421.126295577185
5431.930907811104
5443.085201155905
5454.583189591806
5466.417587115004
5478.580247324398
5491.061833251095
5503.852089765511
5516.939565475913
5530.311371585304
5543.953663858293
5557.851640757803
5571.989602419901
5586.350517814694
5600.916722794775
5615.669260064599
5630.588220046098
5645.6525052747
5660.840525353806
5676.129557809698
5691.496238169699
5706.9159769756925
5722.3638374989005
5737.813741901894
5753.239337472703
5768.613086896713
5783.90706507869
5799.092706795387
5814.1414186926095
5829.023827534703
5843.710660677407
5858.172033863086
5872.378186902203
5886.299112627915
5899.904926414413
5913.165405035795
5926.050740282494
5938.531200577597
5950.577101894698
5962.15933593639
5973.249347260406
5983.818753511602
5993.839816583211
6003.285606703408
6012.129815728805
6020.346876258701
6027.911989143508
6034.801384576802
6040.992311044989
6046.463180453311
6051.193246067503
6055.163124891193
6058.35476805949
6060.7513289399985
6062.337040050807
6063.0977539028145
6063.020632401503
6062.094513601899
6060.309809013599
6057.658354546908
6054.133495576195
6049.7303376110995
6044.445677010698
6038.2776228425
6031.226330100601
6023.293500139991
6014.4823500422835
6004.797849589907
5994.246877260209
5982.837663630002
5970.580168691683
5957.485633541789
5943.567195830005
5928.839511382896
5913.318961903897
5897.023009879103
5879.970749613308
5862.182703229394
5843.681069723504
5824.488991081507
5804.631122089817
5784.133303773599
5763.022840987698
5741.327932827895
5719.0779114800935
5696.302982098985
5673.034491985606
5649.304580055693
5625.146012127288
5600.59249851671
5575.6786280987935
5550.439520834794
5524.910855954093
5499.128898606401
5473.130124921997
5446.951225672408
5420.629010897104
5394.200766829903
5367.703605424892
5341.174712938594
5314.651005606818
5288.169261690607
5261.7660725366
5235.477812321398
5209.340259030708
5183.388928520202
5157.658688648998
5132.183880900704
5106.998099416211
5082.134114403309
5057.623979921003
5033.4989881489
5009.789449942406
4986.524341447897
4963.731851202698
4941.439039486291
4919.671774491709
4898.454404764296
4877.810361251599
4857.761557921391
4838.3286457515915
4819.530503148797
4801.385232409485
4783.909269083202
4767.1178473198
4751.024234495407
4735.640528553998
4720.977268616901
4707.043924849905
4693.847985426509
4681.395692315093
4669.691350454182
4658.738260988896
4648.537875478194
4639.090375074212
4630.394369833296
4622.447453325913
4615.24557635699
4608.783507373002
4603.054509936009
4598.050642805589
4593.7626053722015
4590.179923421399
4587.2909119167
4585.08286365841
4583.541786806802
4582.652641970906
4582.399504904904
4582.765418998501
4583.732632951307
4585.28234766991
4587.39512150171
4590.0508823882965
4593.228799750204
4596.907434943602
4601.0649354196075
4605.67886396289
4610.726731636407
4616.185544269703
4622.031871521995
4628.242195363589
4634.792701023786
4641.659539654705
4648.818692502395
4656.246424585195
4663.919139152801
4671.813403261789
4679.905934463995
4688.173957446005
4696.595051811498
4705.147213851011
4713.80836432701
4722.557448602903
4731.3738389039
4740.237483972998
4749.128613596813
4758.028384881488
4766.918179980104
4775.780370589197
4784.598042251601
4793.3551490720065
4802.036221691896
4810.627065209308
4819.113797337998
4827.483370863684
4835.7237582475
4843.8239033098935
4851.773345972811
4859.562518481399
4867.182675950807
4874.625971300405
4881.885266805899
4888.954224249702
4895.827373422711
4902.500265666397
4908.969198118496
4915.230688593188
4921.282285183901
4927.12228180569
4932.749408325592
4938.162851730495
4943.362410480991
4948.348182270214
4953.121107576402
4957.682388783996
4962.033429706208
4966.176003208093
4970.112503397802
4973.845405148599
4977.377556090194
4980.712151934202
4983.852704615993
4986.8029000207025
4989.56636146811
4992.147339887194
4994.5502195552135
4996.779360732708
4998.8391889239065
5000.734271451595
5002.469250564213
5004.049012177014
5005.477959724407
5006.761256880417
5007.9039504985
5008.911211011407
5009.788030283306
5010.539517779317
5011.170405083203
5011.685920369597
5012.090781705588
5012.389937949002
5012.588355873191
5012.69143117151
5012.704267344983
5012.632122891992
5012.479922651302
5012.252954058105
5011.95642577631
5011.595450829099
5011.175131070692
5010.700605543103
5010.176693117807
5009.6083877540905
5009.000737478495
5008.358842296308
5007.687622242505
5006.991783447207
5006.276399969982
5005.546552219196
5004.8071923134985
5004.063064322707
5003.318972462594
5002.579750097795
5001.850285085396
5001.135290698511
5000.439536376693
4999.767678373883
4999.1242774932
4998.513769040209
4997.940422750486
4997.408525919712
4996.9224135869135
4996.486230372609
4996.103793277799
4995.779140405987
4995.516056082392
4995.318229563502
4995.189093818195
4995.132163195591
4995.150696856
4995.247938448498
4995.426468098509
4995.689292434312
4996.039015630315
4996.478176915702
4997.008766253209
4997.632870144794
4998.352160744497
4999.168383776001
5000.082541542517
5001.095751638204
5002.208700530002
5003.4223666845055
5004.737221735183
5006.153589795994
5007.671568128699
5009.291315590495
5011.012453127296
5012.834366787395
5014.756190422689
5016.776946466503
5018.895457868591
5021.110269425601
5023.419627411505
5025.821770044297
5028.3145815561975
5030.8956166192975
5033.562521516695
5036.31250059819
5039.142656019692
5042.049734581615
5045.0303706736895
5048.081191850992
5051.198904840899
5054.379802638405
5057.619953408091
5060.9153250034
5064.262047361499
5067.655798814995
5071.092227716499
5074.567069971897
5078.075993569995
5081.6145905067915
5085.178361605091
5088.7629722144975
5092.364289653698
5095.978183222815
5099.600272266795
5103.2263027755935
5106.852285286993
5110.474399354703
5114.0884563906975
5117.690896138404
5121.278252794593
5124.847184416698
5128.394171178199
5131.916077958608
5135.409540911283
5138.871585389702
5142.299208512689
5145.689521680705
5149.0397379343985
5152.3478522023015
5155.611528035509
5158.828836654593
5161.998137215905
5165.117888518294
5168.186674249499
5171.203366238522
5174.166758637193
5177.075984702293
5179.930123548891
5182.728272795899
5185.4699169096
5188.154875586505
5190.78293855859
5193.353697159899
5195.867221004207
5198.323698553205
5200.723375614108
5203.066543976798
5205.353812262809
5207.585574709801
5209.762424942106
5211.884948576992
5213.953753201001
5215.969629121314
5217.93367186439
5219.846590289886
5221.709395369515
5223.523406463891
5225.289893620907
5227.010250097624
5228.685942189488
5230.318533308192
5231.9096867934995
5233.460948250905
5234.973675366293
5236.449795185203
5237.891105672597
5239.2993280808005
5240.675923380198
5242.022846623822
5243.341724375289
5244.634505945901
5245.902780295194
5247.148353247901
5248.372770228903
5249.577670918504
5250.764142673101
5251.933662261385
5253.0875480872
5254.227612282805
5255.355129265409
5256.471544597381
5257.578080075902
5258.676262451494
5259.767383878694
5260.852550051003
5261.932776538097
5263.009313704899
5264.083040322995
5265.155010364592
5266.226330116098
5267.298108272093
5268.371274789509
5269.446738079005
5270.525723268917
5271.6093437348
5272.698664394108
5273.794661703913
5274.898251814597
5276.010354798594
5277.132271883007
5278.265189608385
5279.410333507088
5280.568998434098
5281.742749808599
5282.933180373806
5284.142161700898
5285.371812426202
5286.624661996705
5287.903402711809
5289.210787551891
5290.549977459305
5291.924385862506
5293.337642840095
5294.793605826297
5296.296716838601
5297.85171580499
5299.463557047603
5301.137313014302
5302.878979592195
5304.694607254702
5306.590811173593
5308.574176979405
5310.65169902741
5312.830719042897
5315.11911491239
5317.524560134895
5320.055104984503
5322.718893095697
5325.524739369317
5328.481346874099
5331.597807459307
5334.883285952998
5338.347184347506
5341.9989039616985
5345.84795727811
5349.90359941421
5354.175470586091
5358.673014857291
5363.4053334571
5368.381541240393
5373.610692454104
5379.101166147188
5384.861107675695
5390.898619567311
5397.221236386189
5403.8361896855
5410.749965504894
5417.9686670900055
5425.498049567109
5433.343159291909
5441.508174107194
5449.996645431901
5458.8113172044805
5467.954346120994
5477.4268530472955
5487.229201154397
5497.360915420394
5507.820596818003
5518.606124201084
5529.714295940689
5541.1408767732055
5552.880842496388
5564.927937060201
5577.274631410399
5589.912760775805
5602.832831409107
5616.024391932985
5629.475723108105
5643.174334025993
5657.106413817305
5671.257381907797
5685.61114494661
5700.150728239688
5714.858161549698
5729.714636447684
5744.69987615319
5759.792911382104
5774.971545655904
5790.213064888499
5805.493567854115
5820.788599909393
5836.072906570498
5851.320808056403
5866.505745810616
5881.600454652998
5896.577275044197
5911.408401795987
5926.065271805109
5940.519034134295
5954.740681265206
5968.701102747112
5982.371035233911
5995.720908769112
6008.721391842793
6021.3431522548935
6033.55702814979
6045.333918179606
6056.645163925804
6067.46240872929
6077.7579374832985
6087.5042894393
6096.674739050092
6105.242950281802
6113.18380372771
6120.472848335
6127.08657934871
6133.002381230601
6138.198881930312
6142.65569008059
6146.3535149839
6149.274309792801
6151.401433036709
6152.719401967797
6153.214021907823
6152.872729747497
6151.684444814214
6149.639535675685
6146.729765803007
6142.948729198413
6138.291608653197
6132.755285505706
6126.337832662402
6119.0392201623945
6110.861021651397
6101.806552951407
6091.8804676809
6081.089297350894
6069.4409215295045
6056.945274494092
6043.613559546087
6029.458606486804
6014.494778260281
5998.738180994702
5982.206308947692
5964.918122033908
5946.894067528408
5928.1562628957045
5908.7277983923095
5888.633171815909
5867.898349841808
5846.550542970798
5824.6179050698975
5802.1294823765
5779.115656293804
5755.607753731501
5731.638017539992
5707.239170192693
5682.444609437103
5657.288493578301
5631.805605920103
5606.031146977797
5580.001034757201
5553.751384118692
5527.318814010392
5500.740302321585
5474.052829294801
5447.293313490503
5420.49892397339
5393.706653929819
5366.953107072397
5340.274801449303
5313.707803061089
5287.287840106616
5261.049908593894
5235.028718573889
5209.258281887896
5183.772038280392
5158.602365798988
5133.781296374106
5109.339577551213
5085.3072620833
5061.712972117801
5038.584525967504
5015.9485144364135
4993.830592224091
4972.254806816097
4951.244273305909
4930.82037441632
4911.00369031529
4891.813050824303
4873.266059614893
4855.37871794969
4838.165999949902
4821.641213903317
4805.816289051805
4790.701532145094
4776.306146706594
4762.637617618304
4749.702213126592
4737.5046384251045
4726.0482495448905
4715.335000079295
4705.365232876704
4696.138078288598
4687.651318108702
4679.9013408550045
4672.882925036199
4666.5897179364065
4661.014178302701
4656.147637596588
4651.980124251303
4648.500663266699
4645.696939980496
4643.555878602896
4642.063249103398
4641.2037802695895
4640.961171436903
4641.3184500789885
4642.257767242203
4643.760510411986
4645.807443143598
4648.378891614493
4651.454465421614
4655.013233094285
4659.03392624948
4663.494970609298
4668.374662640411
4673.650700437504
4679.300874444694
4685.302781505802
4691.6339078509045
4698.271406536386
4705.192629952501
4712.374953025698
4719.796128863204
4727.433855564709
4735.266272477804
4743.27152404612
4751.4285073966985
4759.716226150492
4768.114262035293
4776.602563867004
4785.161822292892
4793.77305674989
4802.4179758893
4811.078929569906
4819.739045025501
4828.381857171804
4836.991534220008
4845.553053615785
4854.0524531123065
4862.476336498704
4870.811790354707
4879.0469437456
4887.170703436698
4895.172677751603
4903.043016721505
4910.772897371507
4918.354297621497
4925.7800180788
4933.043389434995
4940.138506741906
4947.059959882809
4953.803361309202
4960.3645811004035
4966.740143886391
4972.927296336905
4978.923949368696
4984.728471791003
4990.339853833286
4995.757404608482
5000.981095580502
5006.011325216701
5010.848609451401
5015.493960430784
5019.948748442496
5024.214655795197
5028.293259170509
5032.1866170105795
5035.897037480601
5039.426983155395
5042.77887623041
5045.955709300604
5048.960549888793
5051.796836291605
5054.467702666703
5056.976649266981
5059.326922751001
5061.522284314598
5063.5661499534035
5065.462180076006
5067.213989495988
5068.825376782691
5070.300107404297
5071.642019013106
5072.854866136598
5073.942735262201
5074.909528492607
5075.759288913496
5076.495926782599
5077.123508365707
5077.646138419897
5078.067848258186
5078.392846845996
5078.625272506511
5078.769287229589
5078.828790265309
5078.807958580803
5078.710978523707
5078.542017223502
5078.305285186898
5078.005140778794
5077.645635770292
5077.231139984903
5076.765888050791
5076.254141028491
5075.700285913413
5075.108866926592
5074.4842909786075
5073.831159302004
5073.154057660698
5072.457580887689
5071.746408884098
5071.025150327016
5070.298548547702
5069.57140513241
5068.848357606711
5068.133680908201
5067.432284780391
5066.748723660694
5066.0874981315965
5065.4528337344955
5064.84923336119
5064.2809366976035
5063.752318083504
5063.267452418898
5062.830514335707
5062.445189295908
5062.115484171689
5061.844893110911
5061.636985210889
5061.494942812803
5061.422158205693
5061.42165459459
5061.496531851
5061.649565566396
5061.883528940796
5062.200799633093
5062.603528809299
5063.093634761499
5063.673176277413
5064.343705675896
5065.106460182601
5065.96273983361
5066.913665983218
5067.959993483601
5069.102134267407
5070.340307744889
5071.674662382598
5073.105196501006
5074.631284041785
5076.252254040806
5077.967238369394
5079.775154563704
5081.674668283289
5083.664248705593
5085.742188240691
5087.906564353302
5090.155170389114
5092.485617694093
5094.895546701392
5097.382469051903
5099.943549858107
5102.575621381095
5105.275644984405
5108.04048250931
5110.866868138418
5113.751064968985
5116.68983324961
5119.679539168104
5122.7164838450935
5125.7968660843035
5128.916893206211
5132.072611737208
5135.260558639399
5138.476565358898
5141.716857355989
5144.977572760696
5148.25512212291
5151.545673028798
5154.845816201202
5158.1518763802
5161.460580294197
5164.768601992306
5168.072700765495
5171.369719003996
5174.656815130004
5177.930961238708
5181.189237890592
5184.428840573891
5187.647559445285
5190.842982527097
5194.012805034402
5197.155196045695
5200.268255240707
5203.3503453959
5206.3998165728035
5209.415221715416
5212.395557535802
5215.339968839396
5218.247273551398
5221.116665937816
5223.947257334512
5226.738367332804
5229.489381432703
5232.199902343108
5234.8694506284055
5237.498052419097
5240.085709688599
5242.63239509201
5245.138396493603
5247.604070064791
5250.029656427105
5252.415649020088
5254.762779389709
5257.0717289383965
5259.343215548204
5261.5777828713935
5263.776300038701
5265.939693733196
5268.069144795296
5270.165426368385
5272.229747503995
5274.263459141909
5276.267855094201
5278.243963607109
5280.193163943805
5282.116411265316
5284.015026698693
5285.890111345201
5287.742906868798
5289.574471569491
5291.386067316398
5293.178541582087
5294.952960082202
5296.710344730901
5298.451799349604
5300.178029535808
5301.8898195826905
5303.588006188105
5305.2733157124
5306.946460566391
5308.607995389499
5310.25844142299
5311.898469309288
5313.528632899809
5315.149137707485
5316.760428423502
5318.363062659697
5319.957572575992
5321.5443550344935
5323.123956596991
5324.696600090586
5326.262826569399
5327.823115251582
5329.377783082904
5330.927338359395
5332.472570286384
5334.014226007795
5335.5530961625955
5337.090305417302
5338.627060332106
5340.1645816853
5341.704426692297
5343.248433029299
5344.798572162892
5346.357316009101
5347.92690646429
5349.510581584402
5351.111643324907
5352.733831258009
5354.380907526789
5356.057458605986
5357.768363284389
5359.519051792508
5361.314961640495
5363.162259376111
5365.066856485004
5367.0355809828
5369.075292068397
5371.193413348884
5373.397376906716
5375.6954649633035
5378.095921045592
5380.6074462055985
5383.238947933493
5385.999787814301
5388.899470912791
5391.947685151893
5395.154048007992
5398.528771730705
5402.081892987605
5405.823394163599
5409.763472135192
5413.912240409188
5418.279787338593
5422.875864980291
5427.7101913119905
5432.792334122207
5438.131543658494
5443.736465709002
5449.615651380201
5455.777142979198
5462.2287174633975
5468.977491265314
5476.02996935749
5483.391925715417
5491.068753723702
5499.065085886106
5507.3847892013
5516.030946832201
5525.005962243487
5534.311056859793
5543.946528754991
5553.912037998702
5564.206160611991
5574.826569458905
5585.7698479175
5597.0318147327935
5608.607323230009
5620.490171153995
5632.672614496592
5645.146093614914
5657.900658229591
5670.9253809671945
5684.208014665092
5697.735388968207
5711.492865684506
5725.465196562398
5739.635662031595
5753.986648733702
5768.499356302795
5783.154200633901
5797.9305110652995
5812.806811992504
5827.760529047901
5842.768340831607
5857.80569875809
5872.84738560068
5887.867610237305
5902.83996463461
5917.737230224695
5932.5313273479005
5947.194029694982
5961.696766224897
5976.010566917993
5990.106058332302
6003.953736204309
6017.523857945314
6030.786677579005
6043.712077646693
6056.270114166891
6068.4306849898
6080.1643998729105
6091.441752126498
6102.233501632196
6112.5106966874055
6122.245223930798
6131.409470903208
6139.976565331003
6147.9202549632155
6155.215306491404
6161.83726086669
6167.762549424288
6172.968515208904
6177.434021934194
6181.138863587999
6184.06376733338
6186.191112193198
6187.504569392799
6187.989459169286
6187.632120866888
6186.420579806015
6184.344484288402
6181.394996067595
6177.564525041701
6172.847375858594
6167.23923772518
6160.737913760307
6153.342453736198
6145.053828178201
6135.87442332331
6125.8085067717
6114.861709308401
6103.041576867594
6090.357078978705
6076.819157192801
6062.440283560603
6047.2348023946
6031.218508162287
6014.408839527705
5996.824588144286
5978.485967646976
5959.414754843106
5939.634342202597
5919.169329701797
5898.045597469298
5876.290340049601
5853.931952160387
5831.000111323526
5807.525377057907
5783.539409954189
5759.07484674248
5734.165251997398
5708.844818016591
5683.1484450521975
5657.111788307488
5630.7712138052875
5604.163632960798
5577.326351272402
5550.297054281287
5523.113870437684
5495.814975932999
5468.438689387113
5441.023391119701
5413.6073694470015
5386.228793383809
5358.925236330908
5331.734550750602
5304.694111294986
5277.840980937297
5251.211435562393
5224.841361645899
5198.7659220979995
5173.019611557802
5147.6355559262
5122.646432927895
5098.083494544295
5073.977292404196
5050.35711847541
5027.251400119295
5004.686978660909
4982.689927124399
4961.284675173808
4940.494530440189
4920.341574618484
4900.846718059396
4882.029070667191
4863.906524989803
4846.495409416607
4829.810696434612
4813.865467152802
4798.671243515282
4784.238074821805
4770.5744891337035
4757.68751963899
4745.582544457291
4734.263424390402
4723.7327912198925
4713.991495742177
4705.038601270984
4696.8721523774075
4689.488319047096
4682.881955508791
4677.046519779114
4671.974064702284
4667.655094026691
4664.079007621914
4661.233792063596
4659.106281972198
4657.682459514515
4656.9471835818085
4656.8839359679905
4657.475262003405
4658.702666369496
4660.546946524311
4662.988009746296
4666.004607640291
4669.574954804501
4673.676876140883
4678.287540821199
4683.383343932407
4688.940494010997
4694.934729652399
4701.341600017807
4708.136182425511
4715.293421661694
4722.787960775103
4730.594597939187
4738.687967248198
4747.042825013501
4755.6337897718
4764.436000970408
4773.424551747904
4782.574928739699
4791.863072831706
4801.265309080812
4810.758177225394
4820.3190721982
4829.925856729405
4839.557191446806
4849.192360197794
4858.810814503107
4868.393135159299
4877.920790265395
4887.375655746606
4896.740530728094
4905.99921060189
4915.136258466994
4924.137062266786
4932.987498003698
4941.674619061396
4950.186324915201
4958.511585039497
4966.639961119998
4974.562122941297
4982.269346629099
4989.753887922389
4997.008859580411
5004.028200245496
5010.806746553398
5017.340292117098
5023.625131346297
5029.658221678797
5035.437273297999
5040.960837172896
5046.227925001773
5051.237820305202
5055.990742564813
5060.4874321700945
5064.729296831996
5068.717760742801
5072.454982754394
5075.9435550176895
5079.186448001515
5082.186553711411
5084.947478825796
5087.473135472791
5089.767966660794
5091.836244470298
5093.682787520009
5095.3121956272935
5096.729632936394
5097.940228839687
5098.949332022396
5099.762398988196
5100.385391432187
5100.82386130391
5101.083970391802
5101.172015037804
5101.094314167297
5100.857158577597
5100.466783614604
5099.929592707093
5099.252351053995
5098.441652809506
5097.503942822398
5096.445715800601
5095.27353048729
5093.994039760494
5092.613716551307
5091.139116278996
5089.5767033807
5087.932961217306
5086.214256184203
5084.426973698002
5082.577323270405
5080.671700352006
5078.716412926606
5076.717703205099
5074.682003940498
5072.615796628806
5070.525319860198
5068.416962137112
5066.296960127492
5064.171609687794
5062.04728461209
5059.929740910295
5057.825010982008
5055.739077392309
5053.677734892594
5051.646546680596
5049.651292584815
5047.697533973189
5045.7908817999
5043.936509565393
5042.139910669412
5040.406121874599
5038.740435625397
5037.147603656312
5035.632246638298
5034.198787126494
5032.851653614295
5031.594649079103
5030.431634819202
5029.366260368394
5028.402110808212
5027.542525945698
5026.790914492802
5026.150196629791
5025.623592903898
5025.213745418602
5024.922948023388
5024.753506186104
5024.707329126499
5024.785952231204
5024.990513329398
5025.322079517503
5025.78167138631
5026.369959308115
5027.087185713402
5027.933627592304
5028.909092676693
5030.013259846512
5031.245219463299
5032.604095424302
5034.088835966686
5035.697859071413
5037.429165483102
5039.280908634398
5041.250857516183
5043.336639641607
5045.535756483495
5047.8453866659
5050.2625883232995
5052.784417960694
5055.407389305199
5058.127758628312
5060.942073901893
5063.846524514297
5066.837153476215
5069.909729513198
5073.060193148102
5076.2843143514
5079.578047264296
5082.936733209294
5086.355984856211
5089.831241208194
5093.358196063998
5096.932193389205
5100.548853762997
5104.203455588607
5107.891654331597
5111.608918900801
5115.351051550894
5119.113702304605
5122.892927946489
5126.684340539299
5130.4839197145075
5134.287779564213
5138.092418001106
5141.894255452905
5145.6896749017005
5149.475265636282
5153.247870846895
5157.004228740309
5160.741202511105
5164.455916683511
5168.145967610694
5171.808919146597
5175.442160600601
5179.0434402803085
5182.610477350589
5186.141273840594
5189.633848054495
5193.086532817303
5196.497380019992
5199.864748954206
5203.187184233687
5206.463253608505
5209.6917703618
5212.8716788693
5216.001698821601
5219.081045868904
5222.108920425405
5225.084629291103
5228.007627573597
5230.877240096902
5233.693154613702
5236.455187502189
5239.163120587202
5241.816579046809
5244.415568922597
5246.960190844501
5249.450764395698
5251.887316799496
5254.270182846006
5256.599769309293
5258.876716797896
5261.1013616653045
5263.274512998701
5265.396630183494
5267.468571826692
5269.491066758999
5271.4648733753875
5273.390620712911
5275.269355231399
5277.1018890417945
5278.889557925409
5280.633877493679
5282.336610794297
5283.999481605399
5285.624319527787
5287.2132556589
5288.768946388595
5290.294000543011
5291.791146332911
5293.263539177213
5294.714524191996
5296.147957995696
5297.568069484099
5298.979446449397
5300.38717401588
5301.7969435767045
5303.214487083202
5304.646038508907
5306.0982297804885
5307.578268349693
5309.093768763905
5310.6527541670985
5312.26354534091
5313.934962721114
5315.676090132902
5317.496521012609
5319.406301728885
5321.415921050696
5323.536217151106
5325.777909381696
5328.152564776404
5330.671975986898
5333.347837966294
5336.191786962998
5339.216037441104
5342.432709609297
5345.854222317286
5349.492631304098
5353.360220401101
5357.468851240108
5361.830814123796
5366.457719033494
5371.361329650702
5376.552906327202
5382.043570845484
5387.843804470301
5393.963990129802
5400.413679857783
5407.202461334495
5414.3388566907
5421.830937213691
5429.685842825501
5437.910373076297
5446.509996906398
5455.489498443188
5464.852836453294
5474.603113804003
5484.742381641704
5495.271521620012
5506.190379734491
5517.498059839904
5529.192281509095
5541.269565979102
5553.725296070105
5566.553429253697
5579.746851975002
5593.297000661789
5607.194167242796
5621.427365432794
5635.984360979301
5650.8516062428
5666.014405165496
5681.456787519493
5697.161693650716
5713.110572528316
5729.283731193596
5745.660494443006
5762.219058476695
5778.9363225902025
5795.788087561803
5812.749312928501
5829.793969185398
5846.895099436413
5864.0245988038005
5881.153818208994
5898.253410380203
5915.293197766592
