43573
43589
43580
43654
43652
43668
43637
43721
43699
43738
43700
43759
43768
43800
43739
43808
43848
43876
43799
43866
43931
43940
43917
43940
44006
43996
44000
43991
44057
44043
44095
44041
44137
44106
44132
44104
44148
44153
44172
44079
44137
44183
44216
44153
44171
44205
44196
44139
44164
44178
44163
44115
44094
44113
44073
44056
43980
44003
43942
43931
43829
43756
43700
43712
43620
43600
43570
43553
43452
43393
43370
43296
43219
43172
43158
43101
43034
42953
42954
42873
42816
42743
42733
42570
42587
42520
42509
42469
42437
42338
42310
42287
42257
42177
42154
42172
42133
42041
42035
42047
42013
41949
41910
41936
41892
41815
41815
41862
41830
41843
41767
41790
41770
41763
41698
41700
41722
41743
41686
41680
41689
41698
41651
41637
41675
41663
41644
41542
41616
41631
41635
41616
41669
41632
41648
41600
41636
41620
41638
41576
41602
41595
41615
41564
41577
41605
41592
41541
41551
41569
41563
41545
41545
41584
41547
41556
41525
41584
41563
41577
41526
41568
41552
41581
41528
41544
41560
41576
41541
41568
41591
41554
41548
41566
41614
41625
41601
41608
41673
41651
41659
41641
41693
41690
41719
41669
41739
41725
41735
41687
41719
41745
41725
41710
41725
41757
41772
41749
41747
41800
41796
41763
41760
41817
41809
41809
41796
41854
41823
41838
41804
41840
41837
41847
41749
41751
41817
41855
41805
41833
41866
41852
41837
41835
41866
41883
41862
41843
41905
41888
41898
41868
41932
41899
41902
41858
41854
41886
41928
41875
41897
41913
41945
41895
41897
41945
41969
41932
41938
41978
41975
41948
41957
42015
42001
42015
42012
42061
41974
42001
42018
42099
42091
42111
42062
42118
42128
42156
42119
42147
42189
42197
42184
42211
42249
42266
42248
42256
42314
42320
42252
42302
42391
42381
42408
42368
42443
42426
42453
42432
42482
42484
42524
42489
42521
42556
42593
42563
42574
42646
42663
42636
42571
42682
42703
42720
42703
42771
42765
42796
42770
42838
42827
42867
42825
42883
42883
42922
42873
42909
42944
42979
42956
42972
42989
43040
43015
43033
43089
43086
43087
43090
43159
43165
43184
43152
43221
43233
43249
43211
43265
43284
43305
43266
43292
43327
43309
43232
43321
43399
43440
43402
43423
43479
43478
43481
43486
43543
43520
43561
43524
43604
43581
43619
43585
43638
43642
43642
43560
43648
43699
43735
43697
43736
43777
43784
43758
43789
43845
43840
43852
43835
43913
43897
43924
43894
43978
43956
43996
43888
43988
44008
44059
44003
44042
44072
44093
44077
44092
44137
44177
44161
44159
44239
44227
44206
44224
44294
44294
44310
44294
44295
44263
44357
44347
44407
44419
44431
44397
44447
44473
44503
44493
44502
44527
44559
44531
44551
44615
44620
44619
44624
44671
44617
44687
44689
44760
44738
44772
44750
44793
44790
44820
44783
44830
44845
44876
44854
44856
44897
44925
44894
44922
44980
44996
44898
44949
45038
45044
45051
45024
45097
45091
45128
45081
45157
45141
45174
45132
45181
45198
45226
45177
45209
45260
45272
45234
45170
45288
45285
45269
45262
45315
45292
45293
45250
45275
45224
45220
45168
45176
45146
45120
45027
45020
44981
44948
44855
44831
44742
44738
44656
44621
44588
44529
44443
44397
44366
44300
44230
44146
44163
44066
44017
43922
43909
43808
43764
43657
43630
43574
43536
43438
43386
43366
43311
43221
43164
43175
43128
43040
42980
42985
42937
42897
42832
42868
42801
42771
42700
42728
42655
42589
42479
42553
42538
42530
42468
42459
42453
42457
42381
42372
42392
42382
42331
42302
42337
42296
42289
42231
42306
42266
42259
42144
42234
42231
42237
42164
42196
42179
42185
42129
42141
42172
42174
42123
42099
42150
42119
42082
42071
42118
42102
42076
42053
42013
41980
42039
42025
42059
42041
42042
41987
42014
42014
42010
41948
41970
41997
42011
41951
41964
41997
42000
41955
41955
41998
41919
41966
41964
42024
41998
42026
41984
42037
42001
42036
42009
42043
42031
42063
41997
42023
42048
42059
42023
42037
42089
42095
41993
42041
42117
42110
42091
42090
42122
42111
42139
42113
42173
42135
42154
42121
42146
42143
42194
42133
42151
42177
42205
42152
42092
42179
42196
42163
42168
42218
42214
42196
42185
42228
42212
42219
42190
42245
42221
42243
42182
42213
42223
42239
42199
42217
42227
42245
42224
42227
42267
42259
42221
42249
42284
42292
42281
42269
42324
42311
42326
42288
42354
42339
42365
42330
42369
42368
42343
42331
42371
42412
42435
42397
42423
42468
42476
42443
42463
42513
42530
42524
42518
42583
42586
42599
42566
42651
42625
42613
42607
42683
42687
42701
42677
42722
42746
42762
42742
42760
42822
42826
42812
42840
42863
42890
42878
42881
42934
42934
42953
42869
42920
42959
43022
42989
43058
43067
43086
43034
43100
43092
43139
43105
43149
43177
43206
43179
43191
43259
43272
43248
43246
43253
43282
43340
43334
43401
43384
43414
43380
43448
43448
43467
43433
43473
43506
43545
43503
43549
43570
43614
43578
43588
43648
43581
43621
43640
43722
43726
43722
43721
43789
43766
43796
43766
43840
43827
43870
43818
43870
43872
43906
43869
43900
43935
43959
43862
43941
43995
44017
44005
44003
44063
44064
44078
44062
44133
44120
44131
44114
44178
44170
44212
44165
44214
44230
44262
44228
44174
44222
44306
44279
44290
44354
44359
44349
44363
44426
44405
44430
44431
44488
44484
44497
44463
44533
44541
44567
44521
44567
44578
44618
44575
44602
44630
44653
44631
44638
44701
44703
44683
44690
44765
44742
44758
44758
44816
44803
44832
44801
44866
44846
44884
44847
44872
44891
44935
44893
44919
44961
44988
44952
44990
45017
45023
45009
45041
45088
45089
45094
45100
45160
45133
45137
45080
45196
45218
45250
45214
45250
45278
45299
45268
45286
45334
45362
45320
45341
45407
45427
45383
45403
45459
45469
45462
45389
45511
45528
45550
45532
45614
45577
45630
45580
45655
45662
45677
45640
45674
45703
45732
45708
45719
45768
45783
45764
45766
45771
45729
45807
45794
45872
45854
45881
45836
45900
45874
45904
45836
45881
45859
45878
45800
45801
45788
45796
45726
45704
45696
45591
45573
45537
45566
45482
45417
45373
45368
45288
45234
45139
45163
45057
45030
44914
44897
44831
44783
44685
44637
44577
44535
44378
44352
44367
44322
44212
44149
44157
44071
44003
43935
43946
43865
43827
43758
43758
43694
43658
43574
43582
43530
43521
43435
43349
43380
43378
43317
43295
43318
43264
43209
43182
43230
43186
43154
43111
43143
43088
43095
43037
43076
43028
43057
43006
43027
42960
43007
42936
42957
42979
42974
42931
42934
42964
42947
42910
42889
42932
42926
42892
42884
42910
42903
42888
42841
42883
42862
42866
42819
42866
42835
42861
42786
42798
42810
42824
42768
42777
42789
42791
42747
42736
42780
42757
42744
42735
42774
42765
42718
42641
42754
42771
42778
42734
42783
42775
42792
42722
42763
42756
42775
42743
42766
42801
42796
42772
42771
42838
42832
42800
42743
42827
42840
42839
42816
42883
42864
42875
42841
42884
42872
42887
42833
42864
42877
42890
42847
42884
42907
42904
42867
42873
42868
42835
42868
42871
42946
42911
42915
42907
42953
42940
42937
42911
42944
42930
42945
42865
42914
42925
42944
42902
42913
42924
42884
42884
42917
42966
42950
42933
42926
42970
42964
42960
42942
42992
42990
43006
42960
42997
42990
43023
42967
43001
43022
43048
42930
42994
43035
43077
43052
43065
43108
43092
43084
43098
43144
43128
43129
43122
43177
43168
43204
43172
43218
43217
43230
43199
43174
43227
43278
43239
43266
43309
43329
43294
43302
43365
43385
43341
43361
43413
43414
43421
43404
43477
43460
43486
43466
43515
43492
43545
43517
43570
43580
43612
43559
43606
43625
43647
43624
43666
43699
43698
43667
43708
43749
43749
43768
43745
43831
43822
43781
43804
43871
43874
43896
43856
43910
43912
43954
43912
43949
43973
44015
43984
43998
44055
44072
44033
44043
44108
44107
44053
44089
44171
44168
44183
44148
44218
44220
44239
44203
44265
44253
44306
44247
44287
44331
44357
44317
44345
44388
44386
44389
44337
44361
44421
44448
44441
44511
44487
44516
44504
44572
44555
44598
44569
44630
44619
44646
44607
44638
44671
44707
44671
44693
44679
44749
44746
44748
44806
44802
44811
44809
44869
44870
44885
44876
44936
44918
44941
44908
44979
44975
45012
44965
44994
45037
44990
45009
45051
45102
45109
45093
45115
45154
45164
45155
45152
45221
45213
45237
45224
45283
45271
45306
45257
45327
45336
45373
45252
45313
45377
45416
45392
45402
45452
45481
45446
45452
45524
45528
45526
45530
45584
45584
45594
45571
45658
45657
45677
45644
45622
45683
45732
45693
45730
45729
45792
45747
45765
45807
45817
45806
45817
45868
45892
45865
45871
45948
45946
45951
45944
46006
46002
46035
46007
46070
46068
46107
46033
46091
46126
46150
46116
46132
46182
46212
46186
46202
46247
46253
46249
46268
46307
46315
46317
46319
46385
46352
46390
46331
46399
46386
46417
46369
46391
46385
46424
46354
46378
46373
46363
46326
46305
46320
46289
46189
46106
46187
46164
46106
46055
46049
45986
45952
45859
45864
45780
45744
45644
45626
45580
45535
45426
45371
45345
45300
45191
45088
45100
45070
44974
44913
44921
44840
44771
44694
44693
44615
44582
44498
44507
44422
44411
44315
44297
44263
44251
44154
44134
44058
44021
44033
44021
44036
44016
43944
43933
43971
43925
43895
43866
43903
43861
43871
43809
43852
43807
43835
43775
43775
43777
43698
43706
43729
43744
43741
43704
43713
43743
43720
43700
43682
43738
43720
43688
43665
43726
43692
43696
43664
43715
43665
43698
43572
43629
43655
43665
43617
43624
43639
43646
43589
43595
43621
43619
43574
43574
43629
43611
43592
43579
43605
43592
43587
43567
43550
43583
43613
43562
43614
43607
43612
43582
43607
43630
43626
43614
43615
43649
43654
43636
43628
43696
43656
43646
43653
43706
43631
43677
43672
43723
43707
43732
43676
43706
43706
43751
43684
43704
43720
43737
43708
43705
43744
43735
43706
43719
43761
43727
43722
43707
43756
43740
43754
43726
43770
43739
43769
43710
43730
43714
43755
43670
43705
43709
43728
43694
43679
43721
43708
43643
43615
43735
43739
43727
43705
43771
43747
43752
43701
43778
43763
43757
43726
43749
43748
43774
43724
43748
43774
43801
43753
43713
43793
43807
43766
43772
43835
43823
43817
43810
43853
43847
43861
43848
43905
43907
43918
43891
43933
43929
43938
43916
43948
43902
43910
43929
43964
44003
44026
44005
44017
44086
44076
44074
44080
44131
44137
44146
44139
44193
44181
44228
44177
44247
44234
44184
44201
44252
44296
44313
44291
44315
44358
44372
44344
44367
44415
44391
44393
44413
44470
44460
44480
44472
44537
44525
44539
44443
44563
44566
44600
44562
44593
44610
44644
44606
44637
44680
44712
44682
44694
44735
44748
44713
44735
44808
44785
44792
44777
44771
44809
44848
44816
44886
44861
44899
44841
44898
44909
44954
44910
44924
44971
44993
44972
44974
45037
45024
45006
45004
45068
45040
45074
45055
45143
45107
45131
45117
45170
45164
45200
45163
45199
45229
45243
45204
45236
45250
45276
45241
45274
45334
45328
45252
45302
45381
45385
45399
45375
45446
45428
45459
45429
45477
45460
45518
45466
45500
45528
45549
45520
45544
45560
45605
45519
45567
45640
45645
45625
45637
45702
45698
45693
45674
45745
45744
45769
45745
45792
45801
45810
45775
45803
45806
45861
45836
45774
45782
45880
45878
45899
45956
45959
45930
45958
45998
46005
46024
46001
46069
46071
46099
46075
46127
46130
46164
46124
46160
46098
46186
46156
46203
46237
46272
46252
46266
46317
46328
46294
46322
46369
46362
46350
46345
46406
46395
46388
46347
46414
46388
46317
46257
46325
46341
46331
46260
46258
46238
46229
46146
46117
46121
46075
45981
45937
45955
45883
45794
45727
45728
45652
45605
45422
45483
45406
45382
45257
45234
45155
45118
44994
44957
44899
44850
44730
44689
44664
44605
44509
44460
44444
44382
44321
44231
44172
44158
44118
44036
44053
43985
43944
43871
43871
43827
43822
43731
43725
43715
43688
43626
43602
43611
43595
43515
43505
43518
43477
43451
43432
43454
43416
43408
43366
43399
43376
43355
43302
43336
43303
43309
43266
43265
43258
43278
43214
43212
43252
43229
43203
43185
43225
43201
43173
43159
43186
43154
43147
43112
43140
43109
43118
43072
43097
43075
43084
43014
43041
43032
43043
42946
42907
43001
43007
42954
42968
43008
42972
42960
42942
42987
42956
42969
42933
42986
42975
42980
42945
42984
42975
42989
42952
42922
42963
43006
42986
42986
43015
43030
42996
43012
43049
43048
43033
43029
43088
43052
43061
43059
43098
43063
43083
43043
43069
42997
42990
43004
43046
43058
43087
43038
43042
43071
43077
43031
43042
43063
43052
43023
43012
43053
43039
43038
43020
43063
43032
42970
42961
43031
43021
43032
42968
42986
42998
43011
42980
42972
43000
42990
42950
42962
43004
43004
42972
42958
43006
42997
43004
42887
42981
42982
43016
42981
43030
43002
43032
42964
42995
43014
43020
42982
42995
43024
43059
43025
43027
43065
43069
43047
43045
43036
43067
43089
43061
43141
43121
43140
43110
43159
43162
43179
43142
43165
43191
43206
43160
43179
43215
43242
43217
43225
43262
43216
43216
43242
43311
43317
43310
43294
43360
43339
43361
43330
43391
43397
43429
43377
43422
43429
43464
43437
43466
43493
43519
43474
43488
43547
43543
43548
43552
43625
43609
43624
43585
43665
43658
43689
43663
43714
43713
43751
43701
43749
43756
43768
43699
43705
43802
43832
43809
43825
43867
43875
43859
43871
43925
43921
43937
43932
43996
43992
44030
43976
44065
44046
44074
44024
44018
44084
44121
44085
44109
44144
44176
44120
44173
44214
44231
44207
44217
44279
44288
44284
44275
44339
44340
44374
44330
44403
44325
44406
44373
44423
44447
44471
44444
44473
44512
44541
44511
44498
44549
44583
44550
44576
44643
44633
44617
44615
44689
44671
44626
44579
44707
44714
44758
44704
44757
44760
44809
44769
44791
44808
44842
44840
44856
44901
44903
44876
44894
44965
44958
44968
44883
45004
45007
45038
45027
45089
45076
45116
45069
45115
45108
45145
45113
45151
45178
45210
45185
45197
45238
45247
45224
45230
45236
45281
45295
45309
45368
45356
45378
45357
45426
45409
45437
45397
45443
45460
45487
45435
45485
45494
45542
45523
45528
45573
45586
45578
45593
45652
45653
45635
45644
45723
45703
45725
45699
45778
45776
45788
45743
45808
45805
45839
45798
45813
45829
45886
45838
45846
45878
45826
45821
45841
45869
45838
45797
45769
45797
45750
45726
45609
45611
45589
45585
45490
45509
45442
45391
45270
45245
45137
45130
45025
44992
44960
44911
44803
44715
44702
44623
44469
44431
44439
44344
44275
44189
44179
44057
44032
43925
43850
43738
43756
43645
43617
43575
43545
43448
43401
43379
43287
43228
43205
43217
43164
43087
43050
43073
43012
42972
42851
42936
42882
42876
42806
42824
42806
42791
42701
42706
42637
42686
42642
42622
42632
42646
42581
42577
42593
42576
42485
42494
42540
42506
42491
42456
42497
42440
42461
42411
42376
42393
42396
42339
42363
42352
42362
42298
42298
42315
42254
42230
42229
42259
42248
42198
42178
42214
42196
42169
42102
42171
42144
42135
42085
42126
42110
42113
42043
42049
41994
42064
42018
42021
42030
42050
42005
42016
42048
42045
41950
41918
42036
42038
42043
42036
42079
42071
42086
42046
42058
42073
42085
42032
42090
42081
42108
42051
42070
42102
42074
42059
42090
42135
42116
42105
42103
42152
42127
42121
42047
42140
42123
42156
42114
42153
42130
42146
42092
42134
42075
42119
42067
42084
42115
42131
42088
42091
42116
42106
42020
42064
42113
42084
42088
42064
42118
42091
42089
42049
42056
42078
42097
42052
42078
42076
42102
42039
42044
42064
42057
42048
42052
42114
42098
42054
42073
42116
42113
42093
42021
42115
42103
42122
42095
42162
42126
42159
42118
42156
42105
42193
42136
42183
42195
42221
42181
42209
42256
42254
42184
42238
42309
42301
42293
42274
42362
42356
42362
42333
42346
42371
42410
42368
42410
42419
42460
42405
42436
42458
42430
42439
42480
42511
42531
42514
42512
42560
42560
42563
42514
42623
42611
42629
42614
42676
42668
42699
42647
42712
42660
42738
42714
42737
42760
42799
42763
42769
42820
42846
42744
42813
42872
42884
42875
42875
42954
42943
42943
42948
42963
42982
43016
42988
43046
43051
43098
43027
43049
43092
43081
43061
43098
43142
43171
43145
43150
43196
43200
43194
43132
43179
43221
43258
43248
43324
43309
43338
43297
43357
43323
43383
43350
43385
43408
43454
43416
43433
43489
43491
43418
43470
43543
43537
43531
43530
43607
43597
43616
43603
43603
43640
43669
43637
43697
43691
43726
43680
43701
43724
43717
43712
43755
43771
43822
43785
43800
43842
43848
43841
43804
43911
43903
43900
43905
43965
43958
43995
43946
43998
43945
44029
43989
44021
44046
44096
44028
44067
44119
44134
44066
44124
44183
44200
44184
44196
44246
44239
44252
44235
44249
44270
44324
44293
44365
44352
44385
44361
44361
44414
44386
44392
44414
44464
44478
44467
44493
44531
44542
44528
44492
44598
44596
44598
44597
44673
44649
44670
44651
44698
44645
44722
44692
44736
44756
44784
44767
44784
44834
44865
44769
44830
44873
44903
44880
44904
44952
44971
44967
44962
44984
45018
45060
45017
45094
45090
45112
45054
45116
45115
45094
45091
45131
45160
45195
45164
45184
45207
45207
45184
45103
45230
45190
45182
45148
45204
45140
45123
45055
45076
44989
44989
44900
44879
44840
44809
44691
44657
44632
44606
44449
44426
44401
44349
44266
44201
44181
44086
44016
43908
43848
43787
43759
43658
43632
43555
43498
43392
43357
43283
43199
43093
43079
43038
43011
42917
42855
42841
42791
42694
42586
42633
42602
42548
42493
42489
42431
42405
42345
42364
42263
42285
42216
42229
42194
42192
42114
42113
42089
42086
42003
42017
42043
42028
41973
41947
41983
41959
41953
41904
41883
41888
41896
41852
41900
41855
41859
41788
41828
41796
41740
41726
41740
41744
41745
41702
41666
41697
41689
41637
41586
41655
41611
41591
41572
41612
41577
41559
41532
41559
41473
41528
41471
41501
41499
41520
41452
41487
41480
41483
41380
41424
41476
41482
41457
41457
41515
41504
41488
41474
41486
41503
41520
41486
41555
41525
41550
41510
41567
41565
41531
41508
41553
41573
41602
41571
41571
41607
41617
41584
41525
41641
41622
41610
41604
41666
41631
41653
41613
41667
41608
41641
41600
41656
41646
41658
41593
41607
41619
41635
41540
41582
41609
41619
41580
41573
41619
41599
41576
41582
41565
41582
41599
41558
41606
41577
41595
41557
41592
41578
41542
41535
41540
41549
41581
41545
41544
41585
41597
41544
41491
41585
41582
41562
41559
41614
41586
41584
41576
41633
41556
41611
41596
41662
41642
41672
41610
41644
41664
41694
41604
41658
41699
41721
41698
41711
41756
41769
41728
41749
41757
41778
41808
41789
41858
41833
41862
41831
41894
41890
41865
41842
41904
41932
41955
41924
41940
41982
41993
41963
41926
42019
42025
42009
42019
42078
42089
42096
42088
42135
42075
42147
42133
42187
42175
42196
42172
42200
42234
42263
42182
42230
42274
42324
42284
42313
42376
42370
42353
42349
42378
42408
42438
42423
42490
42477
42487
42459
42523
42517
42497
42496
42558
42575
42603
42579
42594
42626
42657
42630
42581
42688
42691
42670
42705
42764
42760
42786
42760
42835
42773
42832
42828
42883
42868
42906
42859
42912
42929
42959
42867
42923
42976
43026
42980
42999
43059
43068
43040
43058
43070
43104
43124
43109
43197
43186
43204
43178
43247
43238
43217
43209
43242
43270
43315
43287
43309
43348
43387
43350
43300
43397
43408
43407
43413
43481
43473
43488
43483
43552
43487
43539
43528
43602
43596
43622
43586
43641
43640
43668
43601
43654
43679
43711
43689
43729
43763
43773
43765
43762
43787
43831
43831
43827
43895
43885
43926
43894
43967
43953
43934
43935
43992
44001
44047
44004
44027
44074
44098
44072
44047
44133
44163
44133
44144
44202
44200
44206
44192
44261
44203
44258
44248
44340
44331
44356
44318
44360
44367
44404
44311
44385
44428
44457
44433
44442
44508
44498
44485
44500
44531
44552
44553
44578
44630
44621
44632
44627
44706
44684
44653
44673
44730
44723
44766
44729
44747
44778
44793
44778
44730
44820
44841
44805
44824
44866
44837
44828
44825
44862
44770
44807
44754
44799
44761
44750
44665
44669
44616
44589
44436
44468
44437
44411
44321
44261
44234
44185
44088
44061
43966
43933
43878
43811
43787
43692
43646
43551
43549
43460
43365
43288
43270
43185
43169
43037
42999
42944
42910
42812
42709
42724
42707
42610
42561
42556
42509
42449
42411
42428
42284
42310
42244
42287
42237
42216
42141
42151
42121
42102
41990
42014
42026
42023
41954
41938
41935
41931
41893
41873
41853
41868
41849
41818
41866
41833
41828
41812
41834
41817
41747
41732
41776
41771
41770
41706
41727
41728
41744
41687
41627
41691
41703
41652
41641
41670
41668
41638
41619
41665
41573
41605
41582
41629
41600
41606
41560
41585
41571
41582
41462
41524
41535
41562
41520
41512
41550
41558
41514
41506
41514
41548
41524
41513
41586
41568
41578
41532
41621
41581
41561
41543
41615
41603
41634
41571
41601
41598
41619
41583
41538
41595
41623
41599
41589
41638
41635
41592
41592
41651
41598
41630
41606
41656
41632
41633
41602
41652
41628
41645
41539
41596
41616
41631
41583
41589
41614
41613
41596
41564
41563
41586
41579
41575
41617
41588
41594
41570
41623
41601
41563
41548
41625
41586
41622
41554
41590
41594
41612
41557
41518
41574
41593
41556
41571
41599
41599
41575
41566
41647
41552
41607
41604
41646
41630
41649
41623
41681
41668
41705
41610
41695
41700
41720
41675
41710
41751
41768
41759
41756
41750
41794
41797
41793
41869
41845
41850
41856
41920
41913
41882
41822
41941
41949
41981
41953
41993
42009
42024
41991
41983
42035
42075
42041
42053
42110
42139
42112
42120
42184
42112
42157
42167
42247
42222
42247
42228
42300
42289
42333
42220
42313
42338
42373
42340
42372
42414
42441
42419
42437
42433
42483
42462
42481
42542
42539
42554
42544
42599
42590
42558
42582
42668
42652
42702
42657
42700
42696
42743
42694
42671
42747
42785
42770
42778
42828
42831
42812
42844
42897
42838
42879
42876
42942
42931
42964
42953
43018
43008
43037
42958
43037
43038
43089
43046
43085
43101
43135
43111
43123
43122
43174
43155
43177
43233
43227
43230
43229
43276
43281
43270
43290
43350
43336
43373
43323
43395
43405
43426
43374
43370
43438
43477
43451
43468
43506
43539
43524
43527
43582
43541
43570
43576
43643
43619
43639
43632
43709
43693
43726
43645
43741
43754
43786
43741
43776
43814
43845
43811
43837
43827
43890
43882
43901
43957
43953
43954
43968
44044
44022
43983
44008
44078
44082
44109
44070
44127
44146
44150
44122
44119
44177
44211
44185
44210
44241
44256
44238
44255
44298
44262
44284
44320
44383
44357
44377
44367
44432
44418
44465
44375
44462
44469
44516
44481
44518
44558
44584
44546
44571
44582
44625
44616
44632
44687
44701
44702
44703
44766
44747
44696
44726
44806
44793
44818
44776
44821
44789
44820
44770
44730
44698
44747
44711
44710
44724
44715
44638
44612
44625
44532
44491
44432
44435
44387
44317
44246
44246
44167
44112
43963
43997
43909
43871
43748
43718
43661
43600
43497
43438
43345
43333
43248
43183
43170
43094
42993
42929
42923
42827
42736
42681
42697
42605
42590
42489
42496
42418
42402
42282
42220
42215
42208
42127
42096
42099
42082
42004
41970
41994
41907
41875
41858
41894
41843
41824
41784
41827
41776
41780
41683
41737
41691
41700
41632
41654
41662
41653
41578
41584
41532
41583
41548
41526
41565
41558
41496
41468
41516
41489
41424
41416
41478
41441
41435
41398
41430
41384
41391
41320
41305
41311
41328
41266
41285
41283
41282
41220
41208
41259
41178
41171
41175
41218
41193
41168
41133
41182
41165
41158
41068
41176
41162
41167
41121
41153
41152
41175
41117
41138
41130
41178
41147
41154
41199
41200
41162
41171
41216
41213
41154
41185
41255
41217
41247
41222
41262
41244
41263
41198
41203
41236
41272
41235
41248
41273
41279
41231
41249
41284
41250
41234
41242
41292
41290
41272
41248
41308
41270
41286
41211
41308
41291
41307
41241
41298
41286
41285
41244
41260
41227
41289
41249
41250
41286
41299
41249
41255
41304
41300
41235
41255
41331
41314
41307
41278
41335
41299
41336
41274
41269
41292
41326
41285
41329
41343
41363
41330
41346
41384
41344
41349
41374
41434
41436
41419
41409
41469
41456
41460
41399
41517
41490
41542
41503
41543
41543
41576
41539
41557
41526
41603
41584
41604
41654
41677
41643
41641
41706
41720
41644
41685
41784
41761
41792
41748
41828
41812
41834
41799
41804
41847
41886
41852
41896
41916
41954
41926
41928
41969
41939
41957
41981
42053
42047
42042
42041
42104
42097
42123
42045
42149
42166
42195
42170
42220
42223
42269
42221
42244
42230
42298
42275
42301
42341
42380
42355
42372
42422
42419
42369
42413
42494
42486
42504
42489
42563
42553
42586
42557
42553
42596
42648
42608
42643
42662
42705
42662
42694
42711
42706
42711
42734
42792
42806
42786
42792
42856
42845
42873
42793
42910
42899
42932
42897
42965
42948
43001
42952
42993
42956
43041
43013
43036
43090
43118
43078
43096
43155
43156
43111
43147
43231
43221
43235
43223
43297
43287
43322
43296
43290
43338
43371
43343
43372
43376
43447
43400
43424
43469
43441
43435
43478
43551
43550
43523
43557
43619
43616
43621
43560
43666
43665
43693
43676
43734
43722
43756
43725
43765
43733
43812
43766
43797
43837
43858
43848
43861
43906
43918
43853
43915
43977
43979
43987
43980
44059
44025
44076
44061
44059
44091
44132
44094
44125
44148
44188
44137
44177
44217
44185
44213
44233
44286
44283
44289
44296
44359
44357
44371
44321
44357
44416
44444
44432
44508
44501
44529
44488
44537
44500
44576
44526
44583
44596
44631
44619
44638
44691
44713
44623
44672
44749
44752
44758
44756
44817
44810
44833
44807
44812
44836
44889
44845
44881
44893
44929
44873
44894
44900
44881
44871
44863
44890
44871
44811
44800
44825
44787
44752
44631
44693
44620
44606
44507
44523
44438
44407
44300
44283
44157
44170
44078
44040
43987
43949
43841
43779
43758
43699
43562
43513
43518
43441
43373
43304
43292
43222
43161
43075
43017
42977
42964
42863
42820
42782
42745
42657
42645
42613
42540
42489
42480
42478
42462
42394
42357
42362
42331
42297
42235
42282
42234
42226
42176
42202
42164
42154
42110
42113
42052
42103
42030
42022
42039
42056
41992
42003
42024
42013
41913
41881
41975
41960
41937
41923
41954
41937
41933
41892
41872
41895
41897
41847
41868
41840
41870
41802
41821
41818
41772
41762
41764
41799
41796
41759
41740
41785
41756
41745
41656
41735
41723
41742
41695
41753
41704
41722
41658
41707
41655
41710
41633
41678
41680
41691
41676
41669
41698
41705
41619
41677
41730
41721
41711
41713
41764
41752
41754
41737
41724
41757
41796
41762
41793
41795
41832
41763
41805
41820
41790
41782
41810
41842
41864
41830
41825
41881
41857
41837
41780
41880
41875
41883
41849
41896
41876
41897
41842
41880
41805
41873
41821
41847
41877
41895
41851
41863
41888
41884
41801
41839
41900
41893
41871
41870
41922
41915
41904
41874
41883
41894
41918
41901
41921
41917
41923
41888
41916
41936
41902
41893
41916
41960
41978
41939
41934
42013
41976
41982
41949
42002
42025
42027
42013
42064
42054
42079
42042
42109
42035
42105
42052
42108
42123
42162
42113
42141
42182
42195
42117
42165
42257
42250
42232
42243
42305
42299
42330
42297
42317
42341
42370
42360
42420
42425
42450
42386
42445
42462
42438
42447
42483
42524
42553
42528
42549
42602
42608
42579
42517
42654
42661
42684
42670
42738
42731
42744
42727
42797
42747
42816
42769
42823
42846
42883
42848
42884
42927
42953
42871
42917
42988
42985
42980
42995
43061
43053
43071
43055
43075
43108
43140
43116
43175
43173
43211
43171
43221
43222
43216
43225
43242
43279
43313
43285
43298
43363
43361
43342
43289
43410
43430
43423
43408
43499
43473
43509
43494
43536
43488
43563
43523
43574
43589
43639
43593
43626
43657
43682
43632
43666
43726
43730
43709
43721
43803
43800
43817
43790
43825
43835
43877
43863
43929
43909
43938
43901
43945
43968
43963
43963
43996
44039
44076
44058
44059
44119
44140
44107
44081
44168
44200
44193
44188
44261
44262
44288
44261
44327
44263
44327
44301
44372
44387
44410
44375
44409
44446
44481
44385
44458
44519
44539
44529
44534
44588
44588
44604
44581
44611
44646
44665
44644
44720
44720
44754
44696
44755
44763
44750
44756
44791
44832
44855
44837
44856
44902
44926
44910
44861
44981
44966
44979
44983
45055
45035
45062
45042
45113
45051
45119
45082
45137
45151
45188
45142
45178
45210
45233
45163
45205
45274
45291
45272
45296
45333
45350
45354
45352
45346
45379
45415
45405
45479
45459
45502
45476
45517
45524
45514
45506
45548
45582
45606
45584
45607
45641
45653
45643
45595
45677
45690
45683
45684
45726
45713
45734
45687
45724
45636
45700
45622
45639
45633
45619
45553
45538
45527
45489
45385
45374
45373
45313
45262
45220
45210
45154
45085
45020
44963
44936
44893
44829
44810
44742
44714
44606
44585
44535
44433
44367
44339
44307
44290
44205
44148
44122
44103
44006
43926
43943
43911
43868
43807
43828
43784
43756
43688
43713
43605
43637
43563
43602
43569
43567
43489
43487
43491
43491
43372
43404
43439
43433
43397
43371
43417
43379
43350
43335
43344
43339
43349
43321
43366
43330
43341
43305
43325
43323
43276
43247
43282
43298
43315
43249
43265
43292
43283
43255
43196
43282
43275
43247
43229
43258
43229
43240
43197
43251
43177
43221
43173
43217
43203
43233
43172
43189
43189
43209
43095
43152
43188
43197
43162
43158
43205
43193
43170
43167
43169
43200
43212
43194
43240
43234
43256
43213
43259
43238
43212
43133
43241
43257
43287
43247
43277
43310
43305
43264
43231
43328
43347
43320
43326
43387
43353
43372
43346
43409
43326
43393
43361
43427
43397
43416
43367
43391
43400
43428
43362
43402
43432
43447
43411
43412
43461
43467
43428
43412
43421
43443
43466
43424
43483
43475
43490
43444
43487
43466
43437
43417
43459
43487
43501
43467
43473
43509
43505
43472
43424
43496
43518
43490
43478
43548
43535
43536
43523
43581
43508
43562
43551
43587
43597
43615
43565
43599
43615
43642
43549
43608
43643
43665
43638
43643
43683
43719
43695
43681
43698
43734
43752
43726
43800
43796
43814
43780
43843
43822
43815
43799
43842
43884
43895
43869
43883
43922
43940
43920
43878
43960
43986
43975
43987
44051
44044
44046
44047
44109
44036
44096
44089
44165
44157
44186
44145
44167
44207
44236
44138
44212
44253
44273
44257
44278
44326
44328
44313
44319
44337
44360
44397
44394
44445
44444
44458
44428
44490
44484
44458
44450
44502
44518
44565
44542
44549
44584
44622
44591
44565
44636
44652
44643
44658
44720
44729
44714
44700
44786
44698
44784
44764
44827
44814
44848
44798
44850
44866
44897
44815
44870
44905
44950
44913
44938
44984
45014
44999
45000
44993
45020
45039
45025
45103
45111
45132
45092
45092
45162
45130
45126
45183
45190
45237
45184
45215
45253
45279
45249
45221
45295
45338
45298
45322
45379
45374
45382
45375
45434
45381
45443
45446
45496
45475
45531
45485
45541
45546
45566
45451
45540
45586
45614
45598
45608
45647
45662
45644
45649
45666
45700
45730
45734
45781
45774
45790
45768
45841
45819
45815
45792
45866
45874
45901
45868
45894
45914
45950
45918
45901
45971
46010
45968
45981
46070
46060
46042
46051
46117
46057
46115
46094
46187
46158
46210
46169
46223
46211
46255
46149
46225
46256
46314
46281
46307
46337
46351
46330
46336
46353
46393
46395
46401
46470
46460
46471
46454
46527
46510
46497
46470
46547
46543
46584
46545
46578
46595
46595
46559
46539
46609
46612
46580
46575
46631
46582
46562
46533
46571
46469
46506
46460
46485
46432
46418
46331
46339
46292
46277
46118
46140
46120
46115
46014
45973
45954
45907
45819
45774
45719
45719
45658
45572
45587
45515
45463
45389
45401
45321
45238
45204
45222
45174
45143
45029
45019
44993
44988
44914
44838
44866
44861
44785
44754
44785
44750
44715
44679
44710
44593
44629
44587
44628
44591
44591
44546
44558
44545
44535
44427
44489
44503
44518
44453
44461
44490
44496
44454
44441
44438
44450
44439
44418
44470
44450
44448
44422
44489
44451
44424
44401
44445
44436
44457
44387
44413
44415
44461
44419
44348
44418
44439
44416
44390
44456
44427
44404
44404
44457
44380
44420
44397
44457
44422
44436
44394
44439
44427
44451
44338
44409
44436
44459
44422
44424
44444
44480
44425
44450
44453
44479
44468
44474
44524
44527
44531
44519
44590
44563
44551
44533
44587
44588
44612
44565
44603
44608
44616
44584
44545
44611
44647
44624
44633
44684
44664
44648
44658
44711
44630
44680
44655
44727
44718
44736
44696
44750
44734
44746
44643
44708
44732
44762
44711
44728
44755
44765
44733
44729
44710
44763
44742
44746
44786
44770
44773
44735
44735
44779
44744
44751
44813
44790
44818
44773
44792
44804
44817
44778
44762
44817
44843
44828
44821
44879
44870
44847
44851
44915
44842
44875
44886
44946
44943
44971
44928
44976
44969
44988
44885
44978
45023
45039
45015
45029
45068
45081
45060
45074
45065
45104
45101
45115
45183
45168
45165
45155
45209
45214
45193
45180
45276
45269
45314
45263
45306
45325
45357
45308
45274
45357
45387
45385
45388
45446
45447
45415
45425
45486
45458
45499
45483
45555
45543
45560
45527
45606
45606
45624
45537
45618
45652
45694
45660
45682
45722
45736
45713
45725
45748
45788
45801
45809
45853
45863
45884
45877
45956
45938
45927
45925
46010
45988
46025
45977
46028
46046
46082
46050
46011
46091
46151
46113
46123
46181
46179
46160
46189
46237
46180
46217
46219
46287
46284
46302
46265
46361
46312
46366
46276
46348
46357
46392
46360
46370
46434
46454
46420
46418
46420
46466
46460
46467
46520
46536
46532
46527
46580
46574
46523
46551
46628
46615
46629
46611
46646
46657
46679
46643
46624
46683
46723
46679
46720
46745
46760
46742
46747
46818
46761
46792
46797
46857
46844
46865
46842
46900
46894
46927
46832
46917
46913
46980
46941
46968
46979
47009
46999
47006
47006
47033
47031
47065
47091
47094
47089
47093
47158
47134
47107
47133
47213
47179
47232
47185
47249
47242
47268
47231
47205
47277
47294
47279
47296
47365
47370
47346
47330
47397
47343
47380
47368
47460
47449
47462
47437
47506
47491
47516
47423
47511
47522
47568
47513
47543
47582
47611
47562
47588
47570
47625
47606
47638
47678
47687
47707
47691
47769
47742
47715
47736
47824
47802
47831
47779
47823
47844
47887
47845
47810
47873
47894
47871
47896
47940
47932
47902
47908
47953
47884
47899
47900
47955
47907
47899
47856
47901
47848
47825
47723
47745
47722
47714
47607
47572
47557
47527
47466
47417
47349
47337
47265
47257
47233
47168
47109
47030
47037
46969
46871
46839
46858
46798
46758
46661
46660
46589
46578
46473
46409
46425
46408
46321
46305
46308
46275
46202
46170
46177
46078
46079
46054
46088
46021
46008
45976
46011
45957
45960
45837
45917
45892
45908
45834
45843
45832
45856
45799
45809
45761
45792
45750
45769
45790
45782
45757
45744
45786
45758
45713
45723
45776
45756
45765
45717
45754
45734
45732
45685
45658
45715
45738
45685
45713
45735
45735
45686
45686
45729
45665
45671
45672
45720
45698
45704
45660
45704
45691
45677
45581
45663
45670
45682
45618
45651
45651
45676
45631
45622
45599
45656
45615
45628
45678
45670
45641
45644
45707
45682
45644
45655
45722
45710
45733
45690
45737
45732
45751
45699
45681
45734
45771
45744
45750
45792
45816
45759
45782
45810
45725
45772
45782
45835
45824
45809
45787
45854
45832
45845
45751
45834
45825
45845
45799
45841
45824
45852
45811
45817
45780
45841
45820
45829
45848
45850
45839
45830
45889
45871
45819
45816
45886
45867
45887
45848
45873
45850
45880
45832
45834
45872
45892
45853
45867
45905
45900
45863
45867
45914
45850
45876
45884
45964
45935
45945
45930
45989
45964
45990
45881
45989
46005
46011
45962
46000
46014
46035
46010
46039
46026
46075
46058
46071
46105
46111
46101
46098
46150
46154
46106
46119
46210
46201
46199
46181
46252
46243
46254
46207
46207
46246
46304
46263
46283
46329
46344
46313
46328
46377
46341
46348
46356
46417
46399
46417
46413
46458
46451
46480
46408
46494
46489
46528
46491
46522
46526
46567
46549
46541
46535
46616
46586
46590
46659
46663
46644
46665
46707
46701
46668
46678
46747
46755
46767
46748
46820
46801
46835
46775
46760
46794
46845
46812
46852
46877
46887
46862
46885
46940
46888
46901
46924
46989
46979
46977
46953
47028
47018
47036
46942
47054
47042
47072
47021
47065
47089
47129
47084
47111
47081
47135
47122
47148
47179
47191
47182
47176
47237
47242
47179
47221
47292
47286
47294
47278
47333
47325
47357
47293
47302
47340
47385
47345
47368
47409
47441
47397
47428
47464
47402
47444
47467
47523
47508
47513
47522
47571
47562
47581
47483
47578
47583
47625
47598
47620
47654
47698
47636
47655
47655
47714
47691
47685
47732
47758
47745
47752
47796
47798
47751
47766
47821
47843
47851
47842
47906
47894
47932
47869
47855
47903
47945
47892
47935
47968
47983
47965
47973
48015
47989
47996
48010
48076
48087
48077
48066
48133
48118
48128
48057
48177
48180
48209
48156
48205
48225
48254
48195
48210
48181
48265
48227
48248
48306
48311
48288
48287
48365
48366
48302
48325
48410
48383
48405
48381
48461
48453
48485
48424
48426
48469
48519
48471
48501
48522
48566
48516
48549
48585
48536
48540
48574
48654
48625
48611
48597
48662
48648
48642
48579
48673
48638
48636
48605
48614
48614
48603
48525
48533
48475
48511
48456
48426
48434
48401
48317
48270
48294
48245
48107
48097
48114
48043
48014
47923
47937
47869
47834
47729
47679
47644
47626
47518
47496
47472
47425
47342
47297
47281
47191
47152
47107
47122
47075
47025
46946
46978
46917
46897
46761
46821
46780
46786
46705
46708
46671
46686
46601
46590
46534
46569
46514
46505
46532
46523
46469
46471
46491
46452
46382
46395
46450
46414
46424
46392
46438
46408
46428
46355
46346
46363
46387
46329
46338
46364
46369
46320
46320
46339
46305
46288
46299
46332
46328
46281
46284
46335
46310
46290
46220
46305
46286
46292
46240
46293
46259
46279
46232
46239
46185
46246
46212
46221
46241
46246
46205
46203
46239
46212
46158
46170
46234
46215
46223
46191
46249
46223
46239
46191
46180
46214
46261
46203
46236
46256
46275
46227
46244
46269
46230
46218
46264
46299
46299
46294
46270
46334
46317
46335
46266
46352
46341
46352
46314
46355
46340
46359
46307
46341
46295
46367
46334
46339
46374
46382
46365
46363
46400
46380
46299
46336
46397
46395
46406
46371
46444
46420
46434
46368
46372
46385
46432
46373
46400
46406
46424
46397
46390
46418
46367
46358
46392
46434
46411
46410
46396
46435
46433
46431
46356
46464
46448
46452
46408
46471
46446
46486
46433
46446
46423
46480
46444
46473
46487
46517
46482
46479
46525
46521
46455
46490
46567
46550
46565
46562
46618
46604
46617
46573
46580
46612
46654
46605
46634
46665
46692
46642
46665
46715
46678
46696
46707
46766
46776
46751
46746
46821
46805
46822
46747
46849
46837
46846
46837
46889
46883
46923
46861
46890
46857
46934
46903
46934
46958
46963
46952
46957
47008
47031
46961
47001
47080
47073
47079
47035
47098
47105
47124
47086
47104
47136
47170
47118
47175
47191
47200
47178
47203
47206
47187
47203
47239
47288
47275
47260
47273
47338
47333
47336
47272
47367
47370
47393
47351
47431
47420
47442
47391
47427
47380
47449
47428
47440
47484
47518
47459
47481
47554
47538
47468
47502
47609
47582
47597
47590
47666
47630
47655
47620
47644
47674
47693
47667
47713
47713
47734
47701
47701
47764
47730
47755
47757
47815
47817
47789
47804
47858
47854
47881
47775
47912
47900
47919
47893
47957
47931
47968
47919
47957
47935
48008
47958
47990
48026
48066
48030
48024
48089
48076
48006
48059
48136
48128
48138
48125
48189
48165
48201
48146
48162
48188
48236
48182
48233
48241
48273
48226
48250
48282
48259
48275
48292
48333
48329
48322
48316
48378
48375
48380
48305
48400
48402
48431
48402
48466
48455
48472
48424
48469
48415
48505
48476
48492
48537
48556
48519
48543
48587
48582
48519
48548
48632
48616
48632
48600
48687
48660
48687
48647
48655
48690
48728
48666
48731
48749
48779
48720
48764
48786
48750
48769
48798
48846
48850
48820
48847
48886
48886
48881
48827
48921
48892
48904
48884
48938
48913
48938
48888
48906
48842
48899
48847
48860
48867
48868
48782
48776
48796
48749
48620
48636
48666
48618
48554
48506
48509
48432
48395
48317
48296
48247
48222
48126
48121
48045
48019
47919
47877
47841
47755
47725
47684
47662
47608
47533
47473
47486
47417
47368
47243
47312
47248
47211
47135
47145
47095
47077
46998
46982
46900
46925
46869
46865
46853
46855
46782
46752
46789
46760
46635
46659
46701
46675
46656
46626
46660
46642
46625
46592
46585
46598
46599
46542
46592
46553
46554
46499
46534
46531
46510
46495
46502
46544
46540
46493
46487
46525
46488
46470
46417
46494
46489
46492
46471
46520
46470
46488
46488
46457
46394
46448
46406
46420
46437
46442
46403
46403
46420
46428
46337
46366
46415
46387
46395
46370
46421
46394
46399
46360
46365
46370
46395
46355
46413
46402
46415
46370
46393
46397
46357
46359
46400
46434
46433
46402
46405
46453
46437
46425
46384
46467
46452
46474
46427
46487
46467
46497
46433
46467
46419
46472
46430
46441
46463
46486
46440
46447
46484
46483
46385
46416
46482
46452
46437
46436
46479
46466
46476
46433
46451
46456
46463
46426
46458
46450
46472
46386
46386
46411
46376
46379
46395
46422
46436
46399
46397
46443
46415
46397
46314
46410
46416
46414
46391
46447
46428
46430
46372
46428
46385
46432
46381
46399
46423
46457
46429
46423
46468
46469
46395
46449
46469
46488
46469
46450
46519
46495
46500
46493
46491
46502
46557
46496
46563
46566
46597
46527
46573
46593
46558
46552
46576
46622
46635
46613
46621
46665
46667
46648
46589
46696
46708
46715
46683
46740
46717
46764
46715
46770
46709
46776
46738
46778
46787
46831
46796
46811
46841
46876
46782
46834
46905
46894
46903
46884
46958
46948
46960
46935
46940
46976
47006
46985
47048
47027
47066
47005
47043
47063
47027
47030
47064
47104
47131
47088
47092
47142
47142
47144
47116
47206
47190
47212
47185
47266
47249
47266
47250
47281
47231
47289
47256
47300
47310
47336
47300
47315
47347
47380
47286
47345
47411
47418
47394
47400
47463
47449
47451
47428
47455
47474
47515
47474
47551
47528
47565
47507
47546
47583
47531
47518
47572
47598
47617
47591
47601
47665
47661
47652
47576
47695
47698
47706
47687
47775
47747
47780
47723
47795
47730
47799
47749
47796
47811
47832
47781
47819
47866
47872
47792
47844
47902
47918
47887
47885
47957
47937
47952
47938
47933
47965
47985
47968
48039
48034
48029
47994
48027
48046
48027
48021
48055
48087
48106
48080
48110
48146
48163
48132
48073
48179
48187
48207
48190
48247
48241
48248
48228
48288
48238
48292
48252
48296
48337
48347
48307
48343
48394
48388
48309
48351
48431
48432
48413
48418
48469
48470
48494
48454
48484
48495
48519
48493
48543
48537
48564
48515
48535
48547
48497
48494
48497
48538
48539
48499
48476
48497
48466
48421
48342
48416
48342
48312
48258
48251
48191
48160
48066
48073
47942
47952
47856
47844
47790
47768
47656
47612
47568
47530
47374
47358
47342
47317
47211
47144
47137
47054
47008
46937
46892
46836
46802
46717
46731
46658
46634
46529
46494
46463
46387
46341
46330
46334
46305
46223
46210
46202
46174
46104
46017
46086
46066
46039
45992
46029
45985
45972
45923
45946
45849
45894
45828
45834
45847
45846
45783
45784
45791
45804
45677
45721
45773
45742
45704
45682
45728
45699
45693
45665
45651
45666
45689
45637
45677
45638
45647
45584
45608
45603
45560
45538
45550
45557
45583
45512
45524
45539
45521
45497
45425
45499
45470
45460
45440
45498
45456
45488
45418
45477
45389
45457
45405
45441
45441
45464
45403
45404
45426
45429
45361
45401
45443
45435
45421
45413
45469
45452
45439
45432
45429
45445
45476
45455
45508
45486
45510
45433
45470
45480
45450
45427
45461
45487
45504
45471
45464
45511
45508
45478
45433
45512
45481
45483
45476
45520
45488
45500
45448
45519
45444
45488
45438
45489
45468
45503
45431
45456
45461
45462
45387
45415
45457
45480
45420
45435
45491
45463
45450
45427
45430
45447
45470
45424
45477
45450
45477
45426
45455
45449
45411
45385
45428
45460
45471
45441
45429
45464
45484
45454
45380
45465
45481
45480
45450
45504
45505
45507
45490
45537
45482
45534
45507
45537
45557
45575
45535
45562
45593
45618
45525
45578
45635
45649
45610
45615
45688
45683
45672
45670
45664
45689
45719
45695
45774
45749
45774
45738
45788
45767
45769
45741
45788
45820
45846
45823
45850
45882
45896
45868
45808
45929
45928
45916
45926
45993
45975
45984
45964
46023
45939
46031
45988
46040
46054
46066
46035
46058
46091
46104
46053
46108
46136
46159
46125
46144
46210
46192
46188
46178
46193
46212
46261
46227
46284
46289
46301
46271
46333
46319
46299
46288
46339
46356
46397
46372
46388
46435
46432
46405
46372
46470
46483
46467
46466
46524
46501
46522
46506
46579
46482
46578
46556
46604
46600
46623
46585
46612
46642
46671
46586
46645
46700
46730
46706
46715
46765
46760
46777
46745
46764
46782
46818
46795
46875
46856
46878
46842
46890
46890
46880
46869
46913
46955
46976
46939
46947
46990
47018
46982
46957
47054
47052
47066
47052
47119
47096
47108
47083
47155
47115
47162
47129
47180
47188
47204
47170
47208
47227
47245
47176
47217
47279
47284
47274
47294
47338
47348
47331
47342
47340
47378
47405
47383
47449
47438
47478
47435
47483
47466
47458
47462
47499
47518
47549
47524
47551
47592
47590
47566
47521
47625
47631
47629
47628
47690
47680
47679
47671
47733
47668
47730
47702
47780
47776
47794
47763
47786
47810
47855
47761
47819
47872
47879
47877
47887
47927
47947
47935
47927
47940
47969
47999
47976
48050
48037
48080
48027
48085
48080
48045
48039
48070
48080
48105
48076
48089
48117
48127
48086
48043
48117
48079
48060
48053
48080
48025
47988
47929
47976
47827
47853
47779
47800
47726
47701
47596
47572
47523
47490
47350
47348
47331
47292
47194
47130
47108
47043
46974
46890
46855
46794
46745
46644
46646
46567
46528
46413
46410
46318
46246
46168
46171
46139
46104
46004
45976
45951
45915
45837
45749
45790
45762
45707
45684
45686
45640
45614
45562
45587
45512
45520
45452
45490
45442
45443
45363
45385
45380
45390
45266
45309
45345
45332
45296
45265
45293
45274
45250
45226
45213
45235
45228
45206
45246
45185
45202
45171
45203
45184
45138
45110
45119
45119
45151
45105
45106
45118
45100
45042
44992
45057
45058
45023
45001
45038
45005
44999
44963
45008
44937
44982
44948
44991
44952
44966
44896
44919
44910
44931
44844
44884
44914
44915
44869
44875
44917
44926
44889
44871
44875
44892
44909
44892
44944
44930
44940
44894
44949
44925
44890
44878
44927
44943
44957
44925
44933
44956
44966
44925
44891
44968
44970
44949
44937
44979
44968
44962
44948
44996
44928
44977
44950
45000
44964
45009
44937
44967
44978
44990
44891
44920
44968
44988
44946
44943
44994
44973
44933
44934
44938
44952
44952
44934
44979
44949
44966
44923
44974
44958
44924
44900
44950
44935
44978
44912
44931
44965
44976
44939
44884
44959
44970
44942
44946
44980
44981
44993
44966
45020
44948
44998
44976
45042
45024
45046
45005
45024
45037
45066
44959
45008
45065
45092
45064
45074
45113
45104
45103
45093
45100
45136
45145
45145
45205
45193
45211
45173
45241
45239
45226
45194
45248
45276
45311
45268
45274
45319
45347
45313
45256
45358
45368
45355
45349
45401
45395
45406
45398
45476
45378
45446
45444
45498
45489
45516
45464
45517
45513
45567
45472
45537
45575
45619
45591
45606
45651
45670
45634
45645
45644
45700
45699
45694
45782
45770
45798
45756
45818
45806
45768
45761
45837
45851
45887
45842
45869
45905
45935
45891
45869
45950
45968
45950
45963
46015
46015
45996
46014
46081
46003
46069
46065
46136
46104
46123
46097
46148
46141
46173
46074
46148
46185
46220
46187
46211
46271
46290
46243
46257
46280
46292
46303
46294
46370
46364
46375
46351
46437
46398
46375
46367
46438
46442
46480
46458
46458
46494
46515
46501
46452
46533
46561
46538
46548
46618
46612
46622
46614
46666
46615
46666
46656
46718
46694
46750
46698
46746
46740
46762
46692
46747
46789
46828
46810
46810
46853
46884
46854
46870
46875
46914
46912
46906
46974
46975
46986
46956
47015
47008
46997
46988
47053
47070
47087
47046
47066
47100
47140
47111
47087
47150
47182
47172
47159
47222
47240
47230
47240
47284
47218
47276
47265
47342
47329
47362
47321
47360
47362
47385
47300
47372
47394
47431
47409
47426
47481
47476
47451
47475
47469
47510
47528
47524
47587
47571
47585
47592
47665
47648
47626
47613
47661
47666
47717
47680
47701
47757
47789
47733
47695
47793
47817
47795
47799
47849
47857
47849
47836
47898
47821
47894
47872
47932
47919
47938
47874
47933
47903
47945
47816
47846
47876
47884
47823
47814
47826
47772
47717
47692
47647
47641
47583
47516
47536
47445
47422
47331
47341
47262
47172
47116
47120
47052
47002
46888
46848
46822
46788
46680
46574
46581
46552
46479
46416
46400
46339
46255
46195
46210
46079
46081
46003
46014
45941
45914
45845
45833
45799
45783
45623
45655
45658
45657
45569
45546
45559
45532
45475
45471
45411
45437
45420
45385
45412
45381
45352
45313
45381
45317
45280
45252
45302
45281
45301
45211
45230
45251
45241
45201
45147
45199
45200
45165
45156
45202
45187
45153
45132
45177
45088
45152
45097
45161
45124
45123
45098
45117
45104
45106
45003
45051
45070
45090
45031
45017
45052
45048
45002
44988
44992
44994
44986
44969
45022
44990
44988
44944
45006
44965
44924
44912
44984
44971
44984
44930
44961
44980
44985
44929
44901
44972
44994
44970
44959
45008
45011
44982
44980
45036
44961
45014
45015
45066
45041
45057
45021
45063
45042
45077
44944
45020
45045
45068
45022
45044
45077
45075
45037
45038
45030
45064
45050
45052
45087
45074
45074
45042
45091
45082
45031
45018
45074
45061
45083
45021
45053
45047
45067
45024
44973
45057
45059
45026
45034
45082
45058
45061
45044
45087
45021
45064
45047
45107
45063
45089
45046
45094
45075
45095
44975
45045
45073
45085
45059
45057
45072
45126
45096
45086
45084
45112
45121
45113
45176
45161
45173
45139
45210
45200
45165
45159
45245
45243
45248
45204
45248
45269
45283
45248
45229
45294
45323
45293
45299
45365
45355
45331
45338
45392
45331
45372
45374
45446
45436
45456
45415
45479
45484
45504
45410
45457
45499
45528
45483
45517
45554
45576
45532
45561
45546
45615
45603
45599
45674
45673
45680
45676
45740
45732
45694
45701
45776
45774
45811
45758
45807
45810
45847
45814
45816
45872
45889
45874
45884
45942
45950
45918
45925
45987
45931
45980
45970
46056
46032
46059
46027
46075
46079
46105
46002
46084
46114
46144
46104
46131
46175
46196
46163
46182
46180
46242
46222
46227
46281
46284
46274
46289
46364
46334
46300
46311
46390
46366
46399
46356
46411
46401
46440
46429
46374
46449
46486
46461
46466
46522
46523
46496
46518
46578
46507
46571
46550
46627
46602
46645
46599
46671
46646
46674
46578
46644
46674
46716
46666
46694
46742
46756
46743
46768
46745
46781
46784
46791
46850
46848
46862
46839
46914
46889
46874
46865
46936
46939
46972
46927
46957
46984
47006
46964
46934
46999
47041
47028
47034
47070
47094
47067
47084
47150
47074
47110
47130
47207
47177
47207
47175
47235
47218
47247
47168
47233
47246
47302
47258
47292
47319
47352
47317
47314
47306
47369
47368
47373
47454
47444
47440
47436
47497
47467
47436
47452
47547
47516
47566
47513
47557
47575
47592
47558
47554
47620
47644
47611
47644
47689
47695
47686
47688
47746
47698
47722
47726
47800
47767
47802
47772
47850
47841
47852
47753
47842
47861
47903
47865
47895
47910
47929
47920
47926
47906
47945
47932
47932
47971
47950
47944
47931
47959
47914
47852
47824
47876
47824
47809
47743
47732
47685
47655
47561
47478
47500
47483
47400
47346
47339
47290
47207
47155
47140
47034
47008
46942
46937
46859
46824
46742
46760
46665
46637
46466
46492
46452
46432
46323
46301
46280
46249
46165
46119
46046
46051
46004
45970
45984
45935
45891
45835
45871
45826
45757
45747
45763
45736
45738
45684
45692
45659
45662
45606
45528
45600
45596
45566
45559
45582
45587
45530
45529
45563
45472
45502
45497
45527
45504
45517
45480
45527
45506
45515
45394
45466
45458
45482
45428
45453
45469
45474
45422
45428
45402
45437
45407
45399
45456
45447
45414
45375
45430
45386
45345
45350
45426
45385
45402
45346
45392
45376
45404
45330
45313
45362
45394
45349
45351
45388
45399
45344
45349
45412
45341
45355
45363
45431
45402
45415
45378
45445
45426
45449
45335
45409
45438
45458
45416
45435
45449
45471
45438
45438
45430
45462
45418
45439
45494
45460
45461
45445
45502
45484
45434
45446
45500
45488
45503
45446
45473
45470
45477
45443
45383
45447
45480
45417
45429
45447
45466
45427
45429
45471
45424
45419
45421
45465
45442
45450
45429
45487
45443
45453
45354
45447
45422
45452
45383
45416
45451
45456
45403
45405
45398
45453
45420
45438
45485
45484
45464
45458
45505
45490
45459
45446
45506
45502
45526
45478
45538
45534
45542
45489
45465
45530
45566
45530
45560
45579
45594
45568
45593
45635
45571
45615
45620
45667
45655
45685
45672
45718
45691
45731
45659
45740
45720
45772
45719
45749
45786
45820
45782
45786
45772
45827
45813
45827
45874
45854
45854
45867
45938
45917
45887
45905
45974
45959
45985
45949
45986
45997
46026
45990
45968
46018
46058
46046
46059
46080
46118
46082
46110
46154
46112
46121
46146
46204
46191
46212
46199
46269
46261
46284
46190
46292
46293
46328
46287
46319
46344
46377
46329
46355
46325
46406
46388
46392
46453
46449
46430
46426
46479
46483
46444
46459
46538
46520
46548
46506
46560
46570
46593
46549
46508
46575
46602
46586
46613
46658
46695
46660
46666
46722
46679
46692
46703
46766
46751
46765
46746
46807
46807
46807
46730
46838
46834
46863
46820
46865
46887
46921
46886
46907
46875
46932
46927
46938
46987
46977
46970
46996
47056
47040
47014
47039
47096
47083
47099
47073
47145
47121
47155
47114
47104
47138
47213
47162
47183
47218
47238
47222
47240
47294
47235
47266
47281
47323
47329
47354
47329
47404
47388
47400
47331
47415
47430
47456
47412
47450
47468
47491
47477
47494
47487
47548
47524
47538
47592
47601
47598
47598
47673
47674
47617
47567
47710
47706
47735
47705
47758
47742
47796
47746
47749
47794
47845
47815
47840
47866
47880
47871
47885
47938
47858
47901
47918
47983
47988
47986
47969
48045
48046
48060
47978
48093
48064
48124
48074
48114
48134
48173
48122
48142
48140
48189
48171
48191
48236
48241
48215
48227
48273
48276
48232
48232
48316
48297
48323
48274
48339
48309
48333
48265
48223
48250
48265
48212
48205
48204
48188
48126
48095
48097
48013
47966
47925
47952
47888
47826
47762
47769
47693
47649
47501
47551
47478
47448
47326
47303
47244
47223
47102
47071
46964
46955
46876
46831
46831
46766
46671
46621
46621
46541
46443
46403
46408
46357
46325
46248
46253
46192
46159
46072
46029
46030
46026
45944
45921
45935
45929
45862
45840
45864
45759
45761
45746
45772
45736
45715
45687
45725
45669
45664
45569
45662
45640
45636
45583
45599
45575
45581
45514
45536
45500
45530
45501
45503
45524
45503
45468
45438
45494
45459
45396
45401
45467
45420
45428
45375
45412
45390
45399
45321
45302
45331
45338
45290
45297
45312
45307
45261
45260
45282
45216
45209
45216
45245
45229
45209
45189
45246
45190
45215
45095
45205
45180
45205
45151
45180
45183
45199
45149
45164
45161
45194
45174
45154
45199
45195
45171
45171
45201
45203
45119
45151
45230
45198
45203
45165
45234
45215
45231
45187
45165
45189
45241
45190
45200
45228
45223
45191
45209
45253
45202
45197
45205
45244
45239
45229
45206
45286
45255
45259
45170
45251
45226
45250
45198
45243
45239
45252
45204
45209
45166
45225
45206
45198
45259
45230
45195
45195
45235
45238
45178
45176
45235
45224
45239
45209
45255
45238
45240
45190
45179
45215
45252
45201
45238
45240
45268
45218
45238
45287
45220
45248
45251
45306
45308
45294
45290
45353
45336
45352
45295
45386
45365
45404
45347
45398
45400
45420
45368
45401
45374
45437
45409
45437
45473
45493
45460
45464
45522
45513
45468
45509
45561
45560
45569
45540
45610
45595
45627
45570
45573
45620
45658
45616
45634
45674
45694
45663
45673
45712
45689
45691
45718
45767
45775
45777
45787
45831
45825
45835
45762
45869
45868
45902
45857
45916
45914
45949
45889
45924
45906
45961
45938
45976
46027
46040
46010
46003
46056
46072
46001
46042
46114
46116
46141
46102
46174
46147
46183
46139
46127
46188
46233
46173
46211
46239
46276
46234
46259
46298
46270
46271
46284
46347
46350
46352
46336
46416
46397
46432
46341
46446
46434
46482
46434
46483
46484
46513
46471
46517
46472
46546
46523
46543
46600
46611
46575
46577
46634
46639
46602
46614
46682
46697
46717
46690
46753
46738
46766
46709
46723
46748
46800
46755
46785
46809
46844
46810
46826
46865
46821
46857
46871
46917
46928
46922
46907
46989
46970
47007
46943
47039
47034
47052
47030
47079
47066
47104
47053
47079
47041
47111
47106
47128
47167
47174
47152
47168
47217
47219
47151
47180
47265
47254
47273
47257
47336
47312
47336
47302
47311
47340
47349
47332
47345
47359
47402
47359
47388
47423
47381
47398
47424
47477
47490
47484
47489
47547
47517
47526
47451
47579
47579
47595
47554
47613
47619
47643
47603
47633
47614
47672
47653
47652
47706
47732
47708
47716
47760
47763
47711
47753
47821
47821
47835
47822
47872
47866
47894
47868
47854
47903
47953
47902
47950
47968
47992
47962
47982
48029
48014
48009
48026
48067
48093
48077
48062
48142
48131
48140
48066
48165
48156
48174
48137
48178
48162
48177
48117
48132
48070
48110
48058
48067
48056
48016
47971
47916
47917
47889
47768
47755
47765
47702
47666
47585
47574
47497
47453
47362
47297
47246
47237
47110
47083
47037
46994
46885
46837
46811
46703
46651
46617
46604
46533
46442
46392
46400
46316
46266
46155
46196
46139
46092
46020
46022
45965
45951
45841
45842
45768
45787
45721
45704
45711
45703
45626
45623
45630
45602
45493
45495
45543
45505
45505
45465
45490
45438
45431
45395
45383
45381
45386
45315
45339
45335
45351
45304
45304
45311
45249
45246
45268
45295
45273
45233
45216
45251
45230
45205
45127
45150
45163
45180
45134
45193
45155
45162
45101
45104
45059
45087
45029
45043
45049
45050
45021
45003
45020
45004
44908
44940
44997
44968
44956
44925
44978
44928
44960
44908
44901
44907
44934
44873
44906
44909
44911
44869
44883
44898
44879
44872
44871
44917
44915
44870
44872
44914
44896
44901
44833
44922
44889
44935
44873
44919
44898
44919
44845
44887
44823
44891
44863
44875
44888
44898
44848
44852
44882
44879
44798
44835
44888
44866
44859
44828
44876
44866
44860
44811
44823
44819
44849
44797
44826
44818
44834
44777
44791
44798
44750
44771
44762
44806
44804
44776
44781
44813
44798
44797
44715
44818
44791
44796
44739
44809
44790
44808
44737
44792
44714
44794
44745
44766
44792
44806
44763
44757
44818
44817
44737
44780
44834
44826
44830
44802
44880
44855
44885
44840
44848
44869
44904
44866
44904
44901
44941
44895
44919
44964
44912
44926
44949
45005
45005
44977
44988
45035
45034
45034
44959
45076
45089
45094
45086
45134
45134
45146
45092
45159
45129
45190
45157
45185
45213
45226
45201
45220
45266
45268
45185
45255
45328
45320
45319
45309
45362
45373
45387
45358
45340
45403
45453
45402
45459
45467
45487
45454
45484
45502
45468
45502
45512
45569
45579
45552
45570
45622
45613
45606
45562
45655
45658
45679
45659
45733
45714
45754
45706
45752
45719
45782
45755
45789
45811
45843
45825
45817
45876
45888
45828
45862
45930
45915
45931
45923
45979
45953
45992
45966
45996
45990
46047
45994
46047
46044
46095
46044
46070
46094
46078
46001
46081
46148
46173
46145
46148
46213
46212
46200
46167
46262
46256
46275
46245
46314
46297
46321
46289
46327
46270
46356
46307
46330
46366
46405
46376
46395
46430
46457
46369
46417
46491
46487
46478
46478
46533
46536
46549
46538
46549
46574
46607
46562
46603
46622
46649
46594
46641
46662
46632
46648
46665
46716
46719
46709
46716
46771
46755
46767
46697
46811
46808
46839
46813
46869
46861
46884
46850
46899
46870
46927
46889
46927
46979
47009
46983
46990
47033
47059
46968
47027
47093
47106
47100
47088
47163
47136
47165
47143
47157
47185
47242
47201
47251
47254
47276
47236
47278
47284
47271
47284
47302
47353
47379
47349
47364
47441
47411
47400
47342
47459
47481
47488
47477
47541
47537
47563
47524
47583
47514
47593
47554
47605
47630
47669
47620
47634
47693
47697
47634
47670
47746
47756
47745
47733
47810
47789
47808
47788
47789
47815
47862
47812
47846
47838
47849
47791
47812
47814
47752
47726
47730
47743
47711
47640
47628
47626
47579
47534
47419
47452
47403
47350
47274
47282
47205
47163
47061
47045
46925
46932
46809
46774
46742
46685
46600
46547
46510
46448
46289
46281
46295
46215
46143
46080
46071
45998
45963
45854
45841
45796
45752
45675
45679
45632
45606
45503
45500
45484
45408
45374
45361
45360
45335
45260
45246
45270
45237
45201
45088
45177
45137
45135
45088
45114
45071
45065
45008
45055
44974
45019
44962
44946
44959
44960
44915
44913
44931
44921
44819
44854
44915
44877
44844
44827
44860
44826
44821
44800
44759
44780
44795
44733
44785
44747
44762
44695
44714
44687
44669
44631
44649
44676
44679
44629
44623
44655
44651
44600
44527
44617
44586
44582
44544
44608
44572
44581
44529
44585
44509
44563
44510
44536
44563
44563
44527
44530
44558
44568
44496
44510
44570
44564
44553
44532
44600
44581
44581
44545
44553
44563
44598
44556
44604
44596
44603
44536
44568
44579
44555
44535
44558
44585
44601
44564
44571
44616
44610
44582
44525
44604
44588
44589
44553
44621
44585
44599
44543
44596
44529
44577
44536
44553
44550
44557
44522
44531
44543
44564
44462
44518
44562
44539
44504
44512
44541
44526
44540
44498
44505
44530
44543
44511
44546
44521
44538
44487
44510
44524
44500
44466
44496
44528
44554
44510
44521
44568
44557
44553
44474
44576
44585
44567
44555
44610
44588
44621
44587
44642
44582
44644
44612
44641
44657
44680
44635
44643
44685
44707
44631
44679
44740
44750
44741
44735
44795
44786
44781
44775
44784
44785
44825
44810
44877
44865
44887
44837
44890
44886
44880
44882
44907
44936
44973
44929
44957
45014
45017
44988
44931
45037
45038
45061
45045
45115
45088
45108
45068
45148
45084
45152
45104
45148
45158
45200
45168
45186
45232
45252
45154
45219
45281
45285
45279
45276
45327
45326
45330
45307
45326
45348
45392
45350
45416
45424
45443
45387
45422
45451
45409
45424
45451
45503
45510
45495
45509
45537
45538
45531
45507
45587
45585
45586
45583
45645
45638
45655
45621
45694
45606
45685
45649
45706
45690
45739
45692
45721
45770
45782
45684
45736
45800
45829
45790
45803
45852
45845
45860
45852
45851
45882
45918
45874
45942
45935
45968
45912
45959
45968
45957
45943
45965
46018
46028
46009
46011
46076
46071
46058
46011
46043
46079
46095
46117
46181
46155
46193
46157
46226
46168
46234
46206
46250
46273
46310
46253
46296
46317
46352
46267
46313
46393
46383
46375
46382
46439
46424
46438
46425
46450
46465
46493
46473
46535
46537
46555
46518
46552
46580
46565
46553
46581
46630
46645
46621
46635
46699
46703
46678
46633
46736
46727
46757
46741
46817
46798
46819
46812
46859
46785
46859
46832
46878
46885
46913
46896
46897
46947
46971
46888
46942
46996
47002
46961
46971
47037
47035
47020
46999
47011
47014
47026
47011
47059
47019
47034
46953
46974
46943
46892
46841
46845
46833
46831
46752
46716
46705
46640
46560
46464
46504
46445
46377
46295
46299
46232
46184
46094
46078
45937
45920
45820
45822
45756
45716
45593
45537
45497
45452
45299
45286
45277
45219
45117
45078
45076
45026
44959
44869
44847
44799
44779
44722
44732
44676
44668
44572
44581
44544
44447
44411
44428
44424
44407
44340
44319
44341
44321
44261
44167
44250
44228
44213
44179
44224
44171
44173
44131
44173
44076
44114
44082
44110
44078
44085
44017
44044
44037
44057
43932
43968
44018
44001
43972
43959
44001
43968
43949
43909
43900
43920
43936
43892
43943
43924
43913
43847
43891
43882
43849
43801
43830
43831
43855
43810
43802
43816
43811
43783
43737
43797
43792
43789
43778
43824
43788
43793
43772
43837
43741
43812
43768
43805
43816
43849
43793
43810
43826
43841
43783
43807
43849
43872
43840
43836
43882
43859
43867
43849
43847
43857
43886
43831
43904
43854
43884
43846
43896
43861
43840
43817
43852
43866
43897
43841
43851
43889
43885
43853
43773
43848
43854
43849
43833
43874
43846
43867
43815
43879
43783
43836
43801
43847
43835
43848
43790
43812
43817
43837
43737
43786
43814
43829
43803
43787
43836
43831
43807
43798
43813
43815
43827
43805
43867
43847
43869
43823
43868
43849
43810
43820
43841
43867
43898
43860
43865
43917
43921
43895
43832
43935
43927
43934
43935
43975
43970
43986
43959
44029
43977
44037
44007
44053
44049
44091
44034
44080
44098
44126
44031
44091
44146
44170
44139
44148
44183
44204
44200
44204
44214
44248
44285
44248
44320
44300
44326
44298
44358
44364
44340
44330
44373
44408
44438
44408
44417
44467
44463
44466
44395
44501
44512
44524
44505
44583
44570
44582
44569
44628
44557
44611
44614
44670
44668
44684
44667
44680
44715
44757
44664
44712
44758
44781
44771
44772
44847
44838
44823
44824
44837
44854
44883
44876
44955
44924
44973
44935
44992
44994
44960
44969
45002
45021
45086
45028
45057
45099
45115
45080
45061
45153
45166
45155
45166
45231
45230
45236
45219
45283
45215
45280
45266
45331
45323
45356
45296
45324
45350
45408
45298
45365
45438
45425
45411
45417
45465
45498
45470
45465
45489
45509
45549
45524
45598
45585
45623
45578
45654
45631
45617
45617
45644
45679
45693
45683
45692
45739
45770
45740
45696
45714
45798
45773
45783
45874
45867
45875
45860
45942
45881
45944
45911
45960
45957
46003
45954
46006
46024
46038
45974
46019
46079
46095
46065
46078
46142
46144
46137
46135
46148
46177
46206
46195
46247
46227
46268
46244
46299
46285
46289
46257
46303
46336
46371
46328
46339
46392
46414
46398
46350
46451
46456
46452
46463
46524
46522
46530
46523
46574
46522
46595
46561
46646
46632
46669
46630
46660
46687
46725
46643
46695
46748
46770
46728
46754
46791
46787
46793
46788
46799
46825
46824
46819
46862
46835
46832
46791
46825
46796
46746
46706
46718
46704
46708
46624
46590
46578
46560
46475
46382
46400
46350
46265
46212
46194
46117
46047
45963
45945
45822
45802
45712
45691
45615
45564
45430
45380
45344
45285
45108
45086
45071
45017
44902
44835
44800
44764
44659
44597
44570
44516
44468
44384
44406
44334
44273
44219
44206
44149
44083
44019
44030
43980
43988
43899
43877
43865
43863
43796
43700
43762
43741
43704
43662
43695
43664
43646
43603
43625
43547
43577
43527
43560
43521
43517
43444
43460
43438
43447
43330
43370
43386
43402
43348
43332
43342
43325
43294
43287
43248
43233
43236
43205
43253
43202
43197
43135
43163
43128
43092
43079
43085
43073
43092
43026
43010
43025
43014
42957
42899
42972
42969
42915
42907
42955
42930
42913
42878
42927
42831
42884
42875
42910
42870
42903
42856
42862
42872
42886
42792
42853
42884
42904
42864
42856
42902
42897
42873
42861
42868
42880
42885
42857
42933
42915
42910
42870
42928
42908
42865
42851
42899
42904
42925
42868
42877
42898
42903
42862
42815
42878
42896
42850
42850
42906
42865
42863
42849
42886
42812
42865
42825
42878
42845
42871
42796
42827
42825
42843
42728
42789
42820
42835
42800
42794
42831
42831
42794
42784
42781
42804
42799
42778
42834
42809
42818
42783
42850
42816
42782
42763
42802
42808
42837
42795
42800
42818
42828
42810
42758
42840
42844
42829
42836
42895
42864
42885
42875
42930
42876
42922
42902
42973
42955
42973
42907
42964
42976
43005
42912
42977
43014
43035
43026
43010
43065
43075
43058
43072
43065
43113
43117
43115
43173
43154
43198
43156
43235
43214
43196
43195
43226
43259
43289
43241
43269
43300
43329
43308
43271
43358
43375
43349
43346
43425
43401
43421
43418
43487
43395
43471
43459
43520
43521
43548
43527
43548
43567
43592
43510
43575
43601
43638
43598
43618
43665
43676
43656
43662
43677
43719
43727
43722
43779
43776
43785
43761
43835
43814
43795
43788
43847
43862
43885
43845
43872
43914
43943
43897
43861
43940
43962
43954
43969
44028
44023
44018
44020
44080
44013
44085
44076
44158
44140
44177
44117
44172
44189
44219
44124
44193
44240
44271
44228
44239
44285
44293
44292
44283
44318
44364
44353
44344
44427
44398
44433
44412
44472
44464
44447
44438
44501
44513
44538
44505
44541
44565
44587
44557
44527
44622
44646
44631
44648
44685
44691
44701
44695
44749
44697
44751
44733
44817
44782
44834
44774
44832
44834
44888
44788
44865
44886
44922
44912
44913
44965
44971
44958
44952
44959
45011
45024
45023
45085
45073
45106
45086
45154
45136
45126
45097
45168
45175
45221
45181
45213
45231
45263
45248
45197
45292
45300
45294
45287
45380
45364
45366
45345
45435
45351
45420
45413
45474
45477
45511
45473
45528
45528
45563
45487
45544
45587
45612
45595
45617
45645
45669
45644
45663
45658
45697
45714
45702
45777
45776
45784
45771
45828
45789
45760
45780
45823
45818
45842
45784
45798
45806
45826
45759
45681
45744
45731
45672
45643
45667
45603
45534
45534
45486
45375
45358
45283
45292
45209
45177
45051
45037
44976
44927
44750
44749
44724
44659
44563
44490
44446
44389
44285
44230
44159
44109
44050
43962
43961
43891
43828
43730
43724
43629
43531
43492
43478
43425
43399
43295
43265
43225
43209
43124
43029
43075
43079
42998
42954
42967
42934
42894
42822
42861
42769
42786
42741
42759
42707
42717
42642
42671
42631
42641
42517
42553
42573
42582
42528
42510
42538
42510
42466
42461
42443
42446
42449
42417
42448
42405
42398
42346
42404
42356
42297
42260
42321
42302
42297
42226
42232
42230
42248
42190
42100
42168
42190
42127
42125
42156
42117
42095
42064
42105
42003
42072
42029
42092
42058
42051
41995
42041
42041
42036
41927
41989
42013
42018
41991
41994
42019
42031
41984
41986
41998
42020
42020
42006
42060
42044
42061
42013
42081
42060
42032
42017
42057
42063
42072
42027
42058
42075
42082
42044
41993
42067
42091
42045
42050
42090
42078
42061
42045
42091
42017
42045
42043
42076
42053
42056
42028
42058
42028
42052
41958
42013
42022
42042
41994
41989
42021
42022
41995
41997
41998
42006
42004
41989
42036
41997
42017
41978
42041
42016
41978
41950
42011
42018
42035
41979
41987
42000
42000
41986
41935
42008
42041
42005
42002
42057
42052
42043
42029
42073
42012
42072
42052
42116
42102
42136
42102
42133
42120
42170
42074
42152
42177
42190
42151
42173
42201
42230
42210
42223
42204
42243
42244
42248
42311
42305
42299
42278
42363
42343
42332
42334
42388
42390
42419
42387
42428
42436
42479
42447
42400
42494
42519
42500
42506
42562
42584
42574
42579
42624
42585
42628
42646
42710
42696
42715
42665
42746
42743
42765
42692
42751
42792
42822
42790
42793
42850
42856
42844
42853
42849
42893
42901
42899
42961
42963
42991
42979
43029
43033
43006
43004
43074
43083
43106
43060
43110
43125
43171
43144
43123
43183
43214
43194
43216
43277
43275
43260
43260
43320
43265
43323
43321
43401
43370
43401
43365
43432
43431
43456
43356
43442
43468
43516
43488
43491
43548
43590
43559
43566
43583
43617
43613
43638
43692
43698
43698
43680
43739
43742
43733
43724
43785
43797
43839
43806
43826
43865
43893
43862
43806
43901
43930
43918
43922
43999
43998
43982
43979
44059
44013
44055
44052
44123
44105
44148
44117
44191
44167
44212
44100
44188
44213
44273
44215
44253
44284
44311
44292
44310
44304
44352
44349
44369
44423
44402
44438
44423
44494
44477
44473
44473
44543
44532
44559
44532
44572
44585
44628
44597
44561
44626
44665
44664
44659
44730
44727
44726
44725
44777
44738
44787
44773
44853
44833
44882
44844
44907
44907
44949
44869
44920
44968
45000
44976
44990
45037
45070
45031
45051
45057
45094
45094
45119
45183
45165
45185
45170
45253
45245
45201
45226
45298
45284
45316
45268
45310
45327
45353
45311
45278
45330
45346
45312
45310
45351
45337
45306
45262
45278
45189
45219
45158
45183
45123
45100
44997
45011
44957
44923
44746
44758
44717
44683
44589
44544
44514
44457
44344
44306
44217
44173
44078
44026
43991
43917
43853
43780
43742
43663
43555
43484
43490
43399
43357
43254
43208
43156
43124
43038
42929
42951
42939
42863
42822
42835
42757
42715
42656
42685
42570
42572
42537
42569
42528
42501
42427
42468
42430
42422
42287
42329
42341
42337
42277
42271
42277
42281
42281
42213
42197
42150
42169
42158
42199
42175
42164
42126
42159
42115
42086
42068
42108
42085
42089
42022
42025
42028
42027
41969
41917
41977
41984
41941
41927
41944
41937
41891
41884
41922
41847
41876
41844
41881
41867
41866
41826
41860
41837
41842
41749
41800
41822
41814
41796
41790
41820
41820
41787
41780
41789
41803
41801
41789
41854
41833
41836
41808
41867
41849
41806
41811
41882
41870
41874
41824
41864
41863
41872
41839
41819
41866
41904
41869
41849
41906
41894
41883
41887
41914
41852
41881
41878
41928
41912
41927
41872
41926
41876
41906
41781
41859
41869
41884
41829
41859
41887
41882
41840
41836
41820
41837
41830
41819
41862
41855
41848
41810
41810
41831
41807
41794
41864
41843
41857
41805
41836
41850
41861
41821
41774
41844
41860
41818
41834
41877
41881
41857
41837
41910
41857
41888
41877
41950
41933
41944
41910
41965
41937
41969
41872
41945
41966
41999
41977
41975
42024
42043
42010
42035
42020
42064
42054
42052
42138
42118
42127
42118
42181
42171
42143
42145
42203
42233
42238
42179
42238
42235
42287
42247
42204
42276
42313
42290
42305
42357
42375
42362
42370
42427
42366
42407
42420
42486
42480
42517
42484
42557
42531
42571
42480
42559
42594
42618
42582
42629
42657
42697
42670
42672
42679
42709
42699
42729
42777
42761
42790
42751
42815
42808
42790
42739
42866
42873
42893
42859
42896
42920
42920
42924
42881
42971
43000
42953
42971
43035
43036
43038
43024
43109
43031
43106
43104
43182
43152
43186
43156
43227
43206
43242
43159
43233
43260
43293
43264
43281
43328
43334
43304
43337
43351
43382
43370
43357
43432
43433
43441
43426
43505
43476
43444
43452
43528
43533
43572
43518
43557
43579
43603
43565
43533
43622
43654
43627
43637
43714
43716
43691
43702
43745
43710
43756
43762
43823
43807
43830
43807
43877
43863
43903
43806
43893
43903
43944
43920
43928
43979
44002
43985
44004
44002
44045
44040
44063
44126
44123
44142
44122
44188
44181
44162
44184
44248
44248
44272
44233
44277
44298
44333
44292
44265
44341
44376
44347
44365
44410
44440
44410
44410
44443
44368
44409
44410
44467
44430
44432
44366
44413
44377
44365
44242
44270
44251
44227
44151
44112
44109
44070
43972
43947
43870
43852
43778
43737
43717
43635
43579
43504
43491
43414
43289
43248
43250
43152
43100
42978
42946
42898
42855
42741
42650
42649
42601
42516
42472
42439
42376
42315
42250
42227
42139
42112
42053
42073
42005
41968
41899
41906
41850
41818
41684
41738
41726
41716
41621
41613
41614
41591
41532
41516
41489
41478
41457
41423
41447
41414
41394
41345
41345
41343
41269
41270
41310
41277
41294
41235
41244
41226
41239
41174
41110
41166
41174
41113
41102
41139
41120
41069
41058
41093
41017
41031
41000
41044
41001
41002
40948
40978
40939
40943
40836
40894
40889
40899
40845
40852
40871
40853
40828
40814
40786
40831
40804
40798
40832
40831
40820
40793
40856
40834
40803
40796
40871
40866
40850
40814
40853
40863
40865
40825
40801
40853
40897
40867
40872
40907
40905
40891
40884
40946
40889
40926
40897
40968
40940
40961
40937
40983
40961
40980
40881
40950
40974
40988
40934
40954
40969
41002
40961
40976
40965
40987
40973
40975
41007
41003
40986
40979
41030
41011
40951
40973
41024
41015
41027
40968
41002
41012
41012
40982
40953
41016
41036
41006
41005
41041
41033
41012
41009
41068
41008
41034
41024
41103
41082
41094
41070
41124
41091
41112
41012
41076
41107
41146
41115
41121
41165
41194
41144
41153
41176
41199
41189
41206
41257
41265
41263
41248
41319
41300
41270
41288
41363
41347
41382
41330
41390
41392
41429
41394
41371
41449
41477
41445
41460
41508
41518
41506
41514
41581
41546
41579
41577
41656
41652
41670
41645
41719
41697
41739
41638
41722
41752
41774
41729
41783
41812
41828
41802
41824
41825
41873
41861
41885
41940
41954
41955
41954
42028
42016
42006
42001
42090
42083
42115
42058
42116
42147
42178
42113
42101
42186
42218
42201
42209
42271
42293
42264
42264
42313
42276
42313
42334
42398
42400
42428
42406
42466
42452
42489
42409
42499
42505
42547
42522
42541
42595
42606
42572
42579
42595
42631
42633
42653
42702
42705
42723
42706
42773
42758
42730
42686
42809
42823
42853
42810
42847
42881
42915
42866
42857
42915
42946
42946
42952
43023
43027
43006
43020
43073
43031
43066
43067
43147
43150
43164
43140
43227
43211
43243
43149
43229
43273
43307
43252
43299
43347
43373
43350
43356
43367
43424
43420
43427
43491
43495
43506
43500
43576
43567
43540
43541
43624
43641
43678
43631
43689
43694
43738
43701
43672
43762
43801
43771
43798
43860
43884
43856
43869
43921
43902
43921
43932
44012
43987
44018
44012
44072
44072
44093
44001
44074
44107
44139
44106
44145
44177
44195
44191
44209
44204
44264
44253
44281
44334
44329
44335
44347
44417
44405
44383
44408
44481
44466
44504
44464
44504
44509
44551
44520
44498
44569
44612
44592
44607
44667
44656
44636
44659
44701
44653
44686
44688
44736
44718
44726
44682
44733
44684
44691
44567
44621
44586
44589
44501
44476
44457
44445
44355
44301
44233
44216
44145
44106
44080
44004
43952
43871
43844
43788
43670
43610
43620
43531
43485
43360
43334
43275
43231
43096
43014
43015
42986
42893
42824
42799
42748
42660
42611
42610
42485
42476
42414
42429
42371
42347
42251
42271
42201
42194
42045
42096
42080
42076
41982
41978
41973
41946
41946
41881
41850
41856
41812
41787
41810
41778
41770
41723
41754
41712
41658
41644
41688
41655
41664
41592
41616
41607
41618
41538
41493
41511
41531
41486
41474
41487
41494
41417
41392
41436
41344
41365
41328
41386
41339
41337
41274
41327
41268
41271
41137
41206
41210
41221
41148
41155
41151
41155
41108
41081
41079
41106
41068
41050
41087
41075
41059
41034
41082
41070
41025
41009
41072
41073
41079
41016
41057
41064
41077
41031
40997
41067
41088
41048
41052
41096
41093
41068
41059
41126
41055
41097
41081
41143
41121
41143
41106
41151
41146
41173
41057
41135
41141
41166
41116
41134
41153
41175
41125
41124
41131
41164
41125
41141
41181
41167
41171
41150
41150
41177
41147
41146
41211
41177
41185
41129
41183
41185
41199
41154
41124
41179
41197
41166
41161
41197
41192
41151
41155
41195
41139
41173
41157
41241
41203
41219
41187
41234
41214
41239
41151
41226
41236
41258
41233
41247
41261
41286
41257
41274
41285
41329
41302
41323
41368
41368
41366
41358
41431
41399
41383
41383
41472
41464
41493
41448
41501
41490
41545
41480
41474
41529
41582
41535
41561
41623
41621
41603
41629
41684
41642
41661
41678
41758
41742
41766
41749
41817
41817
41826
41722
41811
41844
41863
41850
41866
41903
41931
41906
41925
41920
41981
41974
41984
42037
42042
42031
42039
42109
42104
42084
42083
42166
42170
42195
42162
42209
42213
42262
42214
42208
42277
42320
42293
42306
42360
42354
42356
42368
42417
42364
42428
42432
42503
42488
42518
42485
42556
42545
42594
42496
42582
42613
42635
42609
42638
42654
42689
42678
42700
42695
42744
42716
42738
42823
42824
42823
42808
42893
42871
42853
42849
42940
42924
42958
42920
42971
42988
43032
42963
42964
43041
43080
43053
43080
43129
43138
43132
43129
43179
43138
43181
43193
43270
43258
43282
43250
43329
43316
43346
43266
43350
43374
43416
43373
43409
43450
43470
43470
43461
43472
43520
43522
43542
43595
43591
43608
43605
43670
43677
43645
43652
43736
43737
43750
43702
43772
43771
43808
43762
43743
43829
43877
43844
43868
43917
43937
43927
43937
43979
43954
43986
43992
44061
44053
44079
44060
44144
44126
44152
44060
44149
44161
44214
44172
44200
44233
44241
44247
44267
44276
44311
44312
44342
44384
44386
44388
44389
44460
44448
44426
44447
44525
44525
44561
44522
44569
44574
44623
44587
44565
44641
44682
44663
44670
44717
44730
44707
44714
44781
44733
44769
44771
44845
44835
44863
44842
44912
44907
44932
44852
44939
44969
44980
44953
44986
45024
45058
45023
45050
45043
45112
45098
45109
45163
45179
45195
45179
45179
45249
45228
45226
45306
45293
45333
45303
45337
45351
45382
45324
45321
45359
45379
45364
45354
45386
45382
45348
45320
45363
45287
45289
45266
45301
45253
45239
45155
45178
45100
45090
44927
44956
44930
44910
44812
44766
44731
44717
44624
44550
44509
44470
44393
44325
44313
44246
44187
44120
44123
44027
43922
43886
43895
43822
43768
43667
43650
43619
43572
43472
43398
43413
43399
43327
43266
43291
43250
43166
43146
43162
43067
43056
43010
43041
42985
42972
42910
42953
42911
42887
42774
42828
42826
42838
42772
42765
42766
42779
42721
42716
42678
42714
42667
42664
42691
42671
42644
42623
42659
42612
42592
42572
42626
42597
42596
42540
42551
42539
42539
42494
42454
42491
42506
42450
42447
42478
42462
42403
42400
42445
42354
42373
42341
42400
42360
42364
42331
42359
42332
42334
42241
42286
42304
42320
42264
42269
42284
42289
42257
42241
42242
42283
42265
42257
42316
42294
42288
42280
42325
42283
42241
42269
42344
42311
42344
42296
42331
42351
42369
42322
42295
42344
42377
42354
42362
42394
42400
42356
42358
42418
42342
42370
42370
42433
42406
42428
42391
42442
42422
42420
42320
42401
42423
42441
42383
42405
42429
42440
42384
42398
42382
42421
42392
42377
42444
42437
42441
42427
42464
42433
42375
42387
42457
42438
42458
42397
42450
42436
42466
42413
42377
42446
42481
42444
42443
42494
42483
42459
42459
42507
42459
42496
42478
42549
42537
42539
42510
42585
42540
42576
42486
42559
42567
42609
42571
42601
42628
42657
42620
42636
42638
42689
42656
42687
42738
42728
42741
42736
42794
42766
42758
42768
42858
42834
42864
42826
42871
42884
42926
42874
42846
42907
42952
42940
42960
43007
43015
42988
43008
43053
42985
43047
43063
43119
43102
43137
43106
43175
43166
43200
43103
43198
43209
43255
43221
43242
43287
43315
43298
43313
43316
43358
43357
43361
43410
43423
43421
43409
43481
43462
43433
43455
43542
43532
43554
43530
43557
43568
43600
43570
43543
43616
43647
43629
43644
43684
43709
43688
43714
43757
43703
43748
43750
43805
43797
43819
43799
43857
43857
43876
43786
43882
43891
43920
43884
43921
43968
43979
43953
43991
43993
44016
44008
44048
44095
44098
44111
44097
44150
44163
44128
44143
44210
44198
44239
44205
44243
44252
44277
44256
44221
44292
44342
44318
44337
44383
44395
44363
44381
44449
44402
44433
44417
44493
44502
44526
44494
44566
44572
44582
44515
44568
44609
44657
44619
44635
44683
44710
44679
44694
44697
44742
44742
44761
44826
44827
44830
44817
44902
44877
44841
44865
44948
44954
44975
44926
44967
44983
44983
44977
44974
44957
45036
45042
45067
45126
45130
45111
45122
45171
45115
45180
45188
45255
45237
45257
45245
45299
45304
45313
45241
45321
45346
45371
45344
45366
45398
45420
45397
45406
45431
45463
45473
45467
45541
45530
45528
45514
45589
45590
45552
45575
45636
45658
45684
45641
45686
45706
45730
45690
45688
45742
45781
45772
45794
45827
45835
45831
45829
45902
45846
45882
45896
45963
45929
45951
45921
45971
45955
45959
45852
45927
45934
45952
45873
45877
45895
45883
45807
45790
45739
45743
45675
45642
45661
45589
45532
45480
45481
45410
45334
45292
45298
45217
45193
45070
45043
45010
44972
44880
44775
44774
44748
44666
44616
44598
44549
44459
44459
44393
44298
44281
44222
44237
44161
44140
44058
44083
44013
44007
43867
43899
43879
43863
43800
43804
43790
43790
43720
43708
43667
43630
43638
43621
43662
43636
43623
43585
43625
43585
43534
43518
43570
43548
43568
43495
43514
43500
43512
43451
43401
43477
43478
43425
43434
43467
43469
43430
43407
43455
43345
43394
43361
43426
43407
43399
43357
43404
43378
43389
43276
43323
43336
43356
43310
43301
43337
43323
43293
43270
43247
43278
43277
43254
43304
43304
43276
43253
43305
43272
43236
43232
43303
43279
43327
43242
43275
43298
43307
43271
43235
43305
43326
43316
43313
43362
43348
43326
43329
43384
43319
43375
43352
43447
43418
43427
43398
43441
43441
43459
43352
43438
43450
43485
43426
43432
43461
43482
43424
43437
43449
43463
43466
43461
43504
43498
43492
43449
43536
43495
43465
43451
43499
43494
43515
43452
43486
43487
43519
43475
43427
43494
43504
43478
43471
43524
43515
43487
43482
43524
43469
43512
43498
43569
43540
43556
43513
43575
43553
43582
43480
43546
43557
43596
43558
43561
43617
43621
43591
43595
43601
43642
43640
43642
43702
43682
43693
43680
43742
43734
43721
43705
43777
43771
43808
43751
43807
43837
43844
43813
43788
43865
43910
43881
43884
43934
43958
43934
43929
43987
43925
43998
43977
44052
44045
44072
44041
44099
44089
44119
44024
44102
44151
44181
44141
44151
44221
44226
44226
44218
44212
44268
44261
44264
44317
44323
44344
44344
44408
44387
44351
44351
44443
44453
44470
44437
44465
44489
44536
44489
44466
44540
44557
44535
44562
44603
44621
44599
44615
44672
44604
44667
44660
44727
44716
44744
44703
44775
44753
44802
44699
44772
44813
44850
44815
44836
44892
44909
44874
44885
44904
44933
44937
44929
45018
45004
45018
44984
45070
45040
45029
45033
45109
45103
45126
45089
45132
45152
45183
45146
45107
45188
45224
45200
45207
45273
45272
45255
45260
45317
45264
45318
45319
45387
45376
45402
45364
45438
45413
45448
45358
45433
45460
45490
45468
45494
45522
45562
45534
45531
45544
45594
45601
45599
45662
45666
45671
45652
45652
45718
45681
45680
45775
45776
45790
45741
45791
45809
45854
45824
45793
45874
45896
45873
45889
45945
45951
45922
45934
45992
45918
45977
45996
46081
46047
46083
46043
46100
46094
46129
46027
46107
46144
46183
46144
46176
46209
46250
46206
46212
46241
46270
46272
46282
46349
46329
46351
46342
46410
46393
46360
46368
46452
46434
46473
46421
46462
46481
46524
46463
46466
46533
46567
46546
46543
46617
46617
46608
46610
46672
46602
46661
46661
46740
46703
46758
46722
46786
46793
46818
46706
46780
46814
46856
46821
46844
46897
46918
46888
46905
46917
46936
46950
46936
47007
46991
46993
46972
47042
47008
46983
46972
47037
47018
47017
46955
46958
46970
46970
46905
46839
46869
46861
46794
46776
46789
46716
46652
46584
46592
46470
46479
46403
46419
46339
46302
46215
46191
46123
46087
45925
45924
45900
45852
45766
45700
45657
45614
45513
45462
45429
45410
45328
45281
45281
45208
45176
45099
45106
45006
44952
44900
44917
44861
44857
44761
44760
44740
44743
44664
44588
44645
44627
44558
44559
44586
44549
44510
44491
44507
44433
44440
44428
44477
44435
44426
44365
44395
44366
44375
44261
44322
44333
44339
44291
44311
44324
44311
44283
44248
44231
44257
44245
44236
44281
44242
44251
44185
44245
44217
44156
44134
44180
44161
44166
44103
44128
44128
44135
44075
44026
44082
44083
44025
44012
44054
44037
44007
44007
44040
43954
43993
43956
44019
43992
43995
43947
43983
43973
43980
43878
43929
43968
43995
43951
43955
43985
43992
43962
43960
43965
43979
43985
43976
44023
44010
44010
43974
44046
44025
44014
43980
44034
44007
44051
43997
44012
44019
44058
44015
43959
44052
44057
44027
44035
44069
44081
44037
44040
44086
44021
44068
44026
44089
44080
44096
44032
44074
44072
44078
43982
44031
44067
44078
44012
44040
44060
44068
44033
44042
44037
44049
44030
44039
44088
44075
44070
44035
44035
44086
44059
44048
44074
44086
44106
44031
44070
44090
44097
44082
44040
44103
44139
44113
44117
44164
44149
44136
44134
44191
44128
44179
44165
44235
44234
44249
44199
44251
44247
44273
44187
44243
44266
44296
44277
44297
44337
44346
44336
44347
44354
44364
44383
44371
44450
44438
44440
44417
44477
44487
44444
44457
44535
44530
44556
44503
44534
44586
44609
44569
44560
44621
44662
44630
44639
44712
44700
44695
44700
44770
44695
44755
44729
44808
44809
44833
44783
44832
44846
44871
44779
44865
44889
44929
44911
44923
44964
44980
44957
44960
44989
45025
45026
45024
45085
45074
45091
45078
45134
45129
45104
45093
45168
45174
45190
45145
45177
45221
45221
45215
45189
45269
45294
45271
45283
45354
45344
45336
45328
45394
45358
45405
45360
45451
45424
45460
45410
45463
45465
45499
45389
45478
45517
45537
45520
45549
45588
45600
45574
45594
45579
45630
45625
45645
45718
45695
45716
45695
45758
45733
45737
45727
45790
45794
45839
45770
45812
45846
45873
45838
45822
45906
45926
45914
45915
45982
45965
45970
45977
46028
45981
46031
46020
46091
46084
46113
46062
46116
46121
46159
46054
46116
46166
46214
46189
46208
46236
46253
46232
46254
46259
46292
46296
46287
46370
46371
46370
46352
46424
46421
46383
46373
46463
46452
46493
46446
46467
46510
46533
46511
46479
46567
46584
46580
46586
46650
46627
46658
46658
46716
46661
46717
46707
46778
46754
46783
46754
46801
46791
46844
46747
46809
46858
46879
46877
46885
46938
46944
46925
46930
46930
46972
46967
46980
47055
47034
47061
47037
47109
47082
47050
47066
47129
47139
47187
47137
47162
47194
47210
47196
47163
47257
47292
47256
47265
47321
47330
47316
47313
47392
47307
47391
47361
47433
47427
47432
47385
47408
47404
47442
47322
47371
47391
47400
47339
47336
47352
47327
47246
47211
47180
47161
47134
47077
47098
47004
46980
46894
46900
46834
46752
46673
46658
46607
46565
46455
46425
46414
46349
46266
46156
46183
46138
46051
45987
45989
45923
45852
45789
45796
45682
45682
45597
45616
45565
45518
45443
45422
45422
45370
45258
45257
45262
45242
45184
45150
45148
45138
45091
45059
45025
45044
45029
44986
45026
44983
44988
44919
44968
44954
44877
44864
44908
44892
44919
44853
44854
44865
44872
44828
44766
44771
44803
44815
44799
44841
44809
44803
44764
44817
44740
44786
44747
44791
44755
44773
44718
44726
44724
44738
44626
44668
44709
44714
44663
44666
44698
44666
44632
44625
44636
44638
44649
44612
44658
44635
44639
44587
44635
44604
44580
44554
44604
44610
44623
44569
44595
44626
44624
44597
44556
44631
44653
44630
44630
44666
44668
44659
44637
44702
44629
44675
44655
44693
44707
44718
44677
44704
44698
44720
44624
44673
44730
44725
44700
44684
44725
44735
44735
44709
44707
44727
44721
44723
44782
44765
44776
44717
44764
44754
44722
44704
44739
44743
44767
44710
44718
44744
44754
44728
44673
44752
44758
44736
44708
44761
44749
44748
44730
44790
44713
44701
44708
44786
44763
44795
44736
44756
44766
44782
44699
44745
44791
44809
44782
44790
44812
44827
44808
44817
44801
44842
44842
44826
44902
44887
44904
44856
44924
44885
44878
44867
44916
44948
44972
44917
44941
44989
45014
44992
44943
45038
45062
45020
45038
45087
45090
45104
45077
45156
45079
45146
45104
45193
45172
45221
45185
45197
45226
45253
45167
45225
45294
45297
45296
45285
45344
45348
45318
45338
45365
45375
45396
45374
45452
45438
45461
45430
45430
45492
45461
45452
45509
45537
45540
45531
45546
45592
45616
45582
45548
45640
45669
45652
45656
45709
45715
45721
45714
45776
45711
45781
45759
45819
45831
45849
45807
45840
45861
45896
45795
45863
45901
45937
45902
45929
45982
45990
45971
45977
45987
46001
46026
46023
46085
46070
46125
46072
46127
46131
46112
46117
46161
46173
46217
46184
46191
46227
46253
46241
46189
46284
46268
46276
46278
46341
46324
46354
46337
46396
46337
46395
46370
46432
46434
46451
46407
46443
46443
46502
46404
46472
46531
46540
46517
46519
46571
46588
46563
46572
46580
46606
46634
46625
46675
46670
46719
46662
46712
46703
46670
46661
46722
46752
46801
46775
46786
46814
46837
46826
46770
46868
46868
46875
46881
46928
46944
46948
46934
46989
46920
46988
46948
47031
47022
47048
47003
47035
47051
47109
47013
47064
47129
47136
47103
47132
47176
47186
47160
47167
47183
47206
47231
47214
47286
47263
47308
47280
47328
47327
47301
47295
47330
47360
47396
47378
47395
47430
47444
47413
47382
47473
47483
47489
47466
47550
47528
47533
47513
47598
47530
47579
47562
47619
47619
47644
47580
47603
47637
47664
47552
47598
47649
47650
47599
47591
47617
47585
47585
47540
47504
47494
47477
47411
47444
47374
47351
47257
47263
47214
47110
47057
47020
46976
46965
46876
46826
46807
46730
46654
46547
46574
46514
46439
46364
46373
46293
46236
46147
46150
46023
46033
45953
45933
45883
45849
45764
45724
45687
45679
45546
45559
45559
45555
45471
45440
45450
45413
45386
45347
45320
45327
45330
45275
45311
45268
45273
45218
45262
45233
45169
45134
45165
45176
45186
45143
45135
45162
45148
45114
45062
45127
45114
45104
45086
45137
45111
45099
45077
45137
45041
45102
45048
45091
45078
45094
45029
45046
45067
45086
44977
45007
45057
45042
45018
45006
45052
45035
44999
44993
44980
44995
45002
44960
45019
44997
45018
44956
44956
44978
44951
44945
44986
44980
45009
44963
44980
45011
45018
44995
44936
45026
45032
45019
45020
45082
45041
45057
45037
45090
45023
45075
45037
45092
45087
45099
45048
45061
45085
45110
45021
45064
45118
45111
45092
45098
45127
45117
45087
45090
45087
45091
45118
45070
45137
45102
45123
45070
45098
45093
45065
45040
45071
45091
45102
45052
45075
45104
45090
45060
44992
45087
45071
45077
45045
45097
45069
45070
45036
45092
45022
45058
45010
45078
45068
45078
45029
45046
45069
45088
44985
45040
45083
45076
45059
45046
45115
45107
45084
45070
45081
45116
45143
45105
45170
45151
45180
45132
45178
45181
45160
45166
45182
45214
45236
45213
45221
45278
45278
45252
45214
45295
45301
45301
45312
45381
45355
45361
45341
45398
45321
45397
45377
45423
45424
45457
45420
45438
45476
45492
45410
45476
45542
45547
45524
45529
45578
45587
45571
45566
45573
45615
45647
45622
45673
45667
45698
45647
45706
45707
45692
45694
45711
45758
45800
45765
45781
45837
45843
45800
45769
45871
45875
45886
45858
45940
45916
45948
45921
45993
45926
45987
45928
45995
46005
46051
46003
46035
46064
46086
46004
46061
46110
46129
46099
46106
46159
46172
46171
46171
46178
46200
46225
46197
46278
46248
46296
46260
46291
46305
46284
46268
46313
46341
46372
46354
46354
46392
46421
46401
46356
46449
46452
46450
46440
46516
46505
46524
46524
46567
46504
46583
46534
46586
46599
46626
46581
46598
46626
46660
46598
46647
46693
46704
46687
46691
46745
46754
46750
46750
46745
46770
46805
46798
46863
46858
46893
46841
46890
46904
46875
46864
46903
46931
46966
46944
46968
47019
47014
46997
46971
47052
47067
47067
47048
47137
47117
47129
47119
47169
47098
47175
47153
47195
47219
47239
47198
47218
47232
47281
47194
47264
47320
47343
47331
47330
47399
47384
47394
47388
47405
47436
47445
47442
47500
47499
47536
47484
47522
47541
47529
47513
47537
47589
47605
47567
47581
47629
47626
47620
47552
47646
47636
47640
47620
47669
47623
47628
47562
47613
47520
47549
47468
47474
47452
47421
47340
47301
47301
47236
47089
47098
47092
47015
46951
46871
46864
46784
46725
46643
46566
46443
46460
46381
46362
46262
46246
46122
46090
46013
45935
45863
45800
45784
45729
45636
45577
45553
45482
45413
45299
45343
45275
45241
45179
45192
45123
45092
45019
45007
44924
44880
44831
44867
44843
44830
44766
44744
44736
44737
44624
44649
44666
44648
44601
44584
44607
44582
44566
44520
44501
44497
44518
44475
44489
44473
44458
44378
44411
44399
44353
44339
44351
44356
44352
44291
44289
44319
44297
44259
44194
44258
44230
44232
44204
44231
44187
44203
44142
44194
44096
44146
44068
44100
44090
44077
44033
44032
44048
44032
43941
43969
44015
43996
43984
43957
43999
43984
43979
43923
43939
43948
43972
43922
43957
43932
43965
43898
43921
43936
43910
43889
43917
43952
43958
43919
43928
43954
43961
43944
43866
43963
43954
43963
43944
43981
43964
43981
43936
43985
43905
43954
43915
43934
43955
43966
43927
43925
43944
43955
43878
43922
43959
43951
43925
43915
43952
43934
43921
43906
43904
43905
43932
43886
43928
43923
43931
43864
43892
43894
43874
43861
43867
43903
43903
43857
43854
43899
43900
43862
43811
43889
43886
43876
43847
43907
43882
43903
43903
43905
43830
43881
43833
43892
43885
43907
43870
43864
43927
43919
43849
43898
43957
43949
43929
43931
43987
43982
43983
43975
43980
44001
44031
43983
44040
44040
44070
44017
44067
44066
44078
43993
44044
44122
44136
44119
44134
44185
44181
44160
44117
44208
44218
44226
44210
44272
44252
44294
44249
44303
44248
44317
44278
44314
44339
44378
44343
44363
44410
44422
44345
44398
44474
44467
44460
44463
44514
44509
44522
44502
44527
44545
44596
44554
44623
44616
44638
44606
44653
44677
44646
44663
44698
44736
44766
44735
44743
44808
44808
44797
44748
44856
44865
44881
44861
44927
44915
44945
44915
44967
44910
44993
44953
44999
45013
45049
45012
45030
49126
45082
45023
45075
45136
45153
45135
45137
45201
45187
45190
45188
45199
45207
45257
45221
45296
45283
45311
45263
45305
45300
45298
45304
45337
45369
45387
45364
45359
45428
45420
45413
45360
45450
45451
45478
45463
45508
45509
45528
45511
45554
45493
45562
45531
45565
45587
45613
45584
45609
45651
45654
45587
45636
45703
45708
45715
45726
45761
45756
45766
45756
45782
45793
45836
45807
45869
45875
45898
45847
45877
45904
45875
45880
45921
45978
45992
45959
45984
46048
46036
46023
45965
46065
46070
46096
46062
46136
46116
46154
46118
46184
46127
46196
46163
46195
46212
46264
46226
46240
46278
46297
46226
46272
46363
46345
46351
46351
46408
46396
46396
46416
46430
46442
46472
46442
46509
46501
46534
46482
46519
46524
46497
46504
46552
46563
46561
46529
46522
46569
46543
46522
46445
46512
46468
46457
46384
46397
46324
46303
46211
46210
46116
46109
45992
45968
45940
45881
45788
45719
45683
45616
45471
45439
45441
45357
45281
45201
45176
45093
45035
44900
44855
44803
44754
44648
44615
44537
44508
44382
44330
44280
44212
44143
44105
44079
44042
43953
43900
43907
43857
43802
43686
43729
43694
43679
43603
43618
43562
43539
43477
43488
43406
43447
43360
43376
43362
43355
43305
43283
43304
43289
43185
43215
43249
43216
43177
43150
43183
43163
43146
43093
43094
43098
43088
43043
43060
43020
43038
42986
42986
42986
42937
42921
42927
42963
42933
42884
42892
42895
42883
42858
42773
42857
42827
42833
42791
42811
42796
42798
42722
42748
42674
42712
42670
42678
42681
42690
42654
42641
42663
42654
42565
42599
42653
42659
42641
42629
42684
42655
42665
42630
42634
42644
42665
42623
42665
42660
42683
42649
42659
42681
42640
42628
42647
42700
42704
42673
42649
42712
42697
42688
42608
42703
42712
42705
42679
42729
42709
42716
42674
42709
42651
42696
42668
42693
42699
42710
42677
42678
42703
42707
42638
42669
42715
42712
42686
42672
42711
42692
42714
42678
42663
42670
42703
42661
42707
42702
42711
42640
42661
42687
42649
42666
42667
42697
42689
42671
42673
42726
42726
42694
42639
42732
42715
42722
42701
42758
42745
42769
42717
42747
42717
42782
42749
42770
42803
42827
42802
42802
42845
42852
42791
42824
42896
42902
42907
42899
42961
42933
42972
42945
42945
42979
43024
42965
43027
43028
43070
43017
43054
43067
43032
43051
43096
43138
43164
43157
43148
43208
43204
43208
43157
43260
43261
43307
43279
43325
43329
43368
43321
43359
43314
43397
43373
43393
43418
43465
43443
43450
43501
43526
43450
43504
43580
43575
43598
43578
43643
43646
43659
43631
43666
43680
43727
43695
43729
43753
43783
43757
43772
43812
43792
43804
43825
43872
43899
43873
43894
43946
43952
43958
43894
44000
43986
44023
44001
44063
44059
44105
44105
44091
44074
44145
44095
44132
44172
44196
44155
44184
44230
44254
44176
44222
44316
44301
44324
44299
44371
44346
44384
44353
44359
44395
44443
44399
44453
44461
44487
44457
44500
44523
44498
44517
44538
44590
44602
44581
44579
44647
44651
44673
44602
44713
44715
44740
44717
44791
44766
44793
44752
44803
44766
44837
44818
44841
44900
44914
44888
44911
44969
44973
44917
44961
45035
45044
45046
45023
45097
45094
45130
45099
45104
45136
45176
45149
45197
45213
45250
45190
45190
45259
45249
45247
45286
45332
45338
45336
45328
45399
45398
45410
45363
45466
45449
45486
45449
45515
45509
45553
45502
45541
45503
45581
45558
45590
45636
45656
45632
45651
45692
45711
45659
45681
45777
45760
45773
45771
45839
45828
45860
45819
45854
45878
45920
45896
45940
45943
45983
45940
45969
45995
45964
45956
45967
46022
46018
45998
45995
46043
46008
45973
45882
45963
45930
45928
45836
45871
45808
45774
45682
45661
45582
45572
45475
45453
45429
45369
45290
45217
45191
45126
44994
44971
44969
44885
44817
44724
44730
44627
44589
44486
44431
44397
44356
44237
44204
44169
44129
44033
43988
43960
43851
43828
43795
43791
43749
43682
43641
43667
43667
43562
43469
43522
43484
43480
43396
43409
43372
43379
43292
43295
43253
43281
43239
43239
43242
43238
43182
43179
43219
43193
43106
43147
43194
43143
43150
43120
43160
43118
43135
43071
43079
43090
43111
43041
43075
43078
43067
43018
43026
43043
42977
42991
43003
43026
43000
42985
42967
43022
42985
42977
42910
42986
42973
42979
42915
42959
42940
42960
42888
42902
42857
42918
42887
42904
42924
42926
42893
42887
42933
42933
42858
42885
42942
42956
42953
42920
42989
42957
42986
42946
42952
42979
43010
42951
42988
43020
43037
42977
43001
43032
42996
42988
43012
43058
43046
43028
43001
43050
43051
43064
42982
43062
43064
43076
43036
43080
43048
43063
43063
43049
42997
43060
42997
43024
43053
43072
43026
43028
43052
43048
42963
42987
43050
43037
43051
43007
43073
43042
43044
42989
42964
43007
43050
42987
43005
43022
43026
42998
42998
43027
42998
43002
43013
43066
43066
43025
43032
43074
43057
43072
42998
43099
43095
43121
43081
43125
43123
43137
43093
43125
43101
43158
43125
43149
43202
43220
43180
43182
43240
43251
43187
43229
43290
43271
43292
43282
43353
43336
43366
43303
43324
43357
43393
43356
43401
43429
43451
43413
43438
43481
43436
43453
43482
43536
43539
43530
43514
43575
43571
43600
43536
43645
43623
43666
43624
43665
43685
43714
43681
43706
43684
43763
43748
43759
43794
43819
43792
43816
43816
43878
43818
43854
43931
43934
43956
43940
44001
43995
44013
43980
43994
44006
44072
44022
44065
44079
44106
44087
44083
44138
44092
44110
44149
44212
44212
44207
44207
44259
44254
44285
44205
44309
44303
44337
44314
44358
44362
44387
44356
44386
44373
44417
44407
44432
44471
44481
44459
44469
44547
44544
44475
44508
44593
44583
44597
44590
44658
44637
44671
44631
44621
44654
44707
44670
44694
44717
44754
44736
44755
44794
44741
44769
44776
44841
44836
44844
44832
44903
44906
44925
44839
44953
44943
44982
44942
45008
45010
45029
44983
45028
44983
45079
45058
45066
45118
45124
45105
45142
45192
45203
45159
45183
45269
45259
45273
45260
45332
45333
45333
45311
45312
45345
45391
45344
45387
45419
45438
45421
45448
45490
45425
45475
45490
45550
45540
45552
45535
45603
45590
45604
45534
45642
45607
45634
45582
45637
45611
45623
45554
45580
45529
45567
45514
45493
45500
45456
45394
45372
45363
45318
45209
45165
45192
45111
45069
44981
44997
44902
44862
44745
44680
44644
44610
44496
44452
44403
44352
44247
44190
44159
44057
43991
43935
43912
43834
43772
43701
43675
43612
43565
43412
43462
43405
43367
43278
43268
43224
43199
43122
43091
43009
43044
42951
42942
42951
42921
42845
42841
42844
42808
42709
42717
42753
42721
42694
42634
42690
42639
42637
42554
42524
42556
42592
42519
42504
42528
42522
42473
42473
42491
42413
42405
42415
42436
42415
42395
42352
42410
42373
42371
42274
42359
42331
42352
42267
42282
42277
42272
42230
42200
42173
42206
42177
42160
42189
42163
42124
42117
42158
42152
42076
42087
42130
42116
42113
42067
42121
42089
42101
42054
42037
42061
42092
42055
42058
42072
42105
42073
42082
42120
42060
42072
42089
42145
42150
42131
42108
42162
42150
42161
42074
42169
42175
42181
42134
42164
42174
42198
42136
42158
42123
42173
42132
42149
42205
42205
42166
42156
42156
42190
42127
42136
42207
42167
42186
42151
42202
42178
42189
42123
42125
42151
42201
42134
42142
42170
42195
42140
42139
42188
42117
42129
42129
42164
42169
42156
42134
42187
42169
42189
42067
42191
42172
42195
42144
42168
42187
42204
42161
42185
42151
42204
42167
42194
42234
42241
42213
42231
42260
42267
42220
42237
42310
42290
42330
42304
42349
42343
42362
42318
42297
42360
42409
42376
42395
42427
42447
42410
42436
42471
42429
42459
42472
42537
42536
42544
42519
42590
42591
42604
42536
42636
42618
42653
42598
42659
42677
42721
42671
42699
42682
42757
42730
42772
42821
42816
42800
42822
42879
42864
42831
42857
42927
42933
42954
42938
43004
42973
42973
42972
42962
43010
43050
43021
43055
43105
43119
43087
43110
43170
43117
43145
43168
43237
43248
43247
43238
43280
43278
43324
43243
43337
43331
43361
43330
43388
43395
43432
43409
43434
43440
43481
43460
43464
43542
43551
43516
43532
43593
43595
43548
43573
43664
43655
43671
43642
43718
43709
43735
43694
43685
43763
43792
43758
43781
43823
43839
43826
43825
43888
43839
43858
43879
43954
43937
43953
43934
44004
44001
44027
43958
44045
44063
44079
44051
44079
44111
44137
44102
44123
44120
44177
44162
44189
44246
44249
44230
44245
44313
44301
44240
44295
44353
44356
44387
44356
44412
44410
44450
44405
44401
44446
44478
44461
44480
44531
44554
44543
44543
44600
44563
44592
44611
44664
44680
44664
44661
44731
44727
44746
44671
44767
44758
44823
44774
44819
44849
44875
44833
44846
44850
44900
44895
44917
44985
44985
44964
44981
45048
45037
45001
45025
45101
45112
45139
45095
45167
45168
45192
45155
45138
45194
45246
45220
45233
45281
45299
45265
45295
45348
45278
45315
45333
45391
45381
45380
45356
45411
45389
45391
45273
45360
45328
45333
45260
45238
45226
45208
45130
45084
45013
45024
44936
44894
44903
44825
44746
44679
44689
44597
44482
44420
44437
44358
44294
44189
44184
44106
44054
43926
43835
43809
43759
43669
43627
43577
43521
43427
43363
43352
43224
43166
43121
43136
43070
43019
42924
42960
42960
42866
42724
42762
42709
42690
42600
42593
42570
42569
42494
42484
42433
42447
42390
42364
42396
42362
42315
42289
42325
42280
42219
42201
42246
42211
42218
42159
42193
42154
42149
42071
42029
42068
42091
42052
42036
42055
42040
41998
41975
42008
41940
41937
41900
41953
41910
41909
41858
41919
41858
41858
41744
41821
41788
41801
41733
41747
41742
41755
41702
41691
41665
41691
41644
41631
41673
41652
41627
41626
41665
41640
41582
41579
41643
41623
41628
41579
41631
41620
41649
41568
41549
41613
41632
41601
41606
41644
41667
41618
41606
41669
41598
41629
41628
41679
41678
41680
41643
41707
41665
41690
41606
41690
41681
41708
41646
41679
41683
41706
41706
41663
41647
41675
41665
41652
41714
41701
41679
41661
41710
41701
41638
41653
41716
41686
41700
41659
41700
41687
41710
41656
41612
41654
41705
41657
41662
41695
41705
41662
41668
41712
41631
41671
41661
41720
41689
41699
41670
41715
41702
41721
41636
41724
41699
41731
41700
41716
41740
41775
41727
41745
41723
41770
41754
41766
41813
41800
41807
41809
41848
41849
41824
41838
41906
41879
41923
41890
41938
41938
41961
41906
41893
41959
41998
41968
41993
42033
42047
42031
42033
42106
42055
42074
42085
42149
42141
42152
42142
42209
42200
42226
42128
42226
42236
42266
42217
42262
42294
42344
42296
42309
42296
42356
42340
42361
42411
42430
42432
42426
42426
42488
42477
42486
42547
42544
42572
42542
42591
42574
42622
42585
42564
42629
42673
42644
42672
42729
42735
42711
42723
42788
42744
42760
42793
42862
42862
42876
42866
42934
42918
42956
42862
42955
42968
42985
42974
43001
43029
43056
43028
43054
43040
43092
43095
43125
43180
43176
43174
43176
43239
43227
43210
43225
43306
43289
43322
43282
43340
43352
43385
43357
43331
43403
43429
43400
43438
43496
43507
43485
43491
43562
43505
43539
43556
43620
43606
43660
43634
43712
43699
43723
43626
43724
43740
43770
43738
43757
43793
43825
43798
43819
43814
43868
43861
43875
43932
43948
43947
43937
44023
44020
43972
43986
44082
44068
44110
44075
44115
44127
44127
44104
44097
44174
44222
44185
44203
44252
44268
44257
44268
44338
44272
44318
44323
44385
44384
44406
44402
44465
44459
44492
44387
44477
44499
44544
44496
44521
44555
44580
44563
44583
44574
44635
44609
44605
44678
44676
44689
44688
44749
44739
44706
44722
44812
44794
44827
44766
44817
44823
44869
44806
44779
44856
44889
44872
44899
44941
44966
44932
44948
45009
44952
44985
45001
45064
45082
45081
45066
45147
45124
45153
45058
45156
45169
45200
45172
45199
45236
45274
45274
45248
45244
45306
45291
45301
45347
45352
45356
45320
45393
45376
45330
45343
45419
45380
45408
45339
45349
45338
45358
45276
45212
45241
45251
45182
45147
45143
45096
45025
44970
44966
44864
44836
44772
44786
44708
44661
44561
44569
44491
44429
44264
44277
44224
44187
44062
44030
43993
43935
43815
43784
43701
43679
43602
43556
43555
43483
43436
43359
43359
43275
43191
43154
43176
43112
43093
43004
43000
42965
42951
42865
42795
42823
42821
42761
42743
42759
42739
42675
42654
42682
42596
42633
42599
42619
42602
42611
42545
42583
42559
42568
42420
42509
42489
42505
42435
42445
42461
42467
42421
42391
42384
42409
42362
42361
42392
42367
42354
42320
42320
42322
42291
42256
42312
42280
42289
42221
42235
42234
42239
42181
42125
42184
42194
42142
42143
42156
42151
42118
42112
42162
42069
42100
42076
42137
42115
42136
42072
42144
42107
42138
42038
42084
42103
42124
42087
42093
42126
42125
42097
42102
42095
42132
42126
42117
42179
42172
42170
42138
42215
42170
42143
42134
42214
42187
42218
42151
42196
42209
42230
42173
42137
42191
42205
42188
42196
42237
42229
42186
42185
42241
42146
42192
42188
42241
42210
42238
42212
42253
42223
42243
42136
42190
42225
42235
42180
42187
42220
42219
42176
42174
42179
42209
42178
42196
42240
42218
42204
42189
42223
42225
42190
42190
42253
42233
42260
42224
42241
42272
42272
42238
42192
42256
42291
42282
42277
42339
42315
42296
42306
42365
42313
42357
42350
42419
42424
42422
42375
42442
42436
42485
42391
42449
42465
42517
42479
42503
42540
42558
42536
42539
42544
42593
42591
42610
42651
42662
42667
42644
42733
42702
42680
42689
42766
42758
42796
42757
42791
42808
42834
42798
42791
42866
42899
42885
42881
42926
42938
42929
42912
42992
42929
42992
42982
43058
43042
43068
43021
43090
43100
43131
43029
43113
43137
43195
43138
43166
43202
43241
43215
43224
43232
43284
43267
43286
43359
43351
43361
43351
43411
43394
43362
43379
43469
43456
43488
43440
43481
43492
43535
43496
43465
43555
43578
43561
43572
43627
43623
43590
43590
43676
43617
43654
43666
43741
43734
43747
43718
43787
43778
43804
43703
43795
43809
43851
43821
43851
43883
43898
43892
43892
43901
43944
43925
43951
44016
44019
44026
44002
44088
44066
44028
44055
44134
44131
44166
44118
44160
44185
44215
44182
44135
44218
44264
44228
44240
44294
44312
44286
44298
44352
44292
44340
44347
44425
44414
44453
44405
44460
44463
44505
44405
44481
44521
44546
44539
44559
44591
44613
44606
44610
44593
44665
44662
44666
44730
44715
44734
44728
44790
44771
44751
44773
44840
44840
44861
44828
44862
44882
44928
44893
44862
44924
44972
44952
44977
45018
45043
45021
45021
45097
45044
45098
45093
45167
45151
45179
45152
45217
45217
45241
45148
45209
45258
45271
45244
45266
45296
45332
45301
45296
45300
45338
45336
45335
45387
45347
45348
45306
45358
45314
45259
45243
45271
45244
45240
45136
45124
45109
45090
44996
44917
44949
44908
44827
44779
44763
44726
44627
44572
44544
44426
44406
44349
44355
44272
44225
44108
44105
44025
44009
43848
43855
43803
43776
43678
43650
43623
43595
43506
43452
43403
43370
43329
43272
43295
43229
43191
43137
43177
43121
43050
43015
43042
42987
42992
42906
42923
42912
42911
42849
42787
42832
42864
42793
42783
42818
42787
42760
42738
42785
42699
42747
42722
42784
42710
42748
42695
42731
42694
42714
42606
42660
42672
42690
42622
42646
42655
42657
42657
42605
42579
42617
42594
42582
42624
42601
42588
42569
42613
42581
42555
42510
42576
42552
42574
42508
42544
42535
42553
42503
42447
42504
42532
42505
42516
42528
42544
42514
42502
42558
42487
42524
42525
42586
42557
42585
42539
42604
42587
42607
42509
42586
42600
42622
42588
42614
42640
42649
42621
42633
42622
42677
42649
42632
42696
42668
42687
42656
42722
42688
42637
42576
42691
42684
42708
42654
42691
42700
42712
42656
42611
42687
42700
42671
42680
42724
42694
42676
42676
42712
42667
42669
42669
42721
42684
42719
42674
42712
42699
42717
42611
42661
42683
42706
42676
42672
42700
42709
42674
42682
42686
42708
42724
42693
42766
42749
42763
42742
42804
42775
42739
42748
42815
42803
42823
42788
42810
42820
42858
42813
42778
42877
42900
42860
42880
42932
42915
42918
42936
42987
42938
42977
42964
43038
43035
43068
43026
43074
43075
43107
43007
43073
43110
43137
43116
43135
43178
43203
43162
43169
43187
43235
43245
43231
43299
43301
43324
43299
43374
43354
43348
43328
43395
43406
43452
43407
43437
43459
43505
43465
43428
43521
43558
43540
43528
43587
43596
43595
43610
43659
43578
43661
43651
43725
43726
43742
43712
43769
43769
43797
43715
43781
43818
43855
43826
43842
43886
43909
43901
43885
43902
43957
43974
43961
44031
44018
44039
44035
44098
44074
44060
44057
44136
44132
44175
44123
44161
44196
44215
44188
44162
44228
44259
44241
44244
44306
44320
44323
44328
44390
44334
44379
44368
44451
44431
44454
44422
44482
44494
44532
44424
44515
44527
44569
44551
44571
44611
44646
44623
44634
44624
44668
44671
44681
44736
44747
44773
44739
44817
44795
44778
44785
44844
44838
44879
44836
44868
44900
44926
44916
44871
44974
45002
44975
44989
45056
45055
45040
45044
45121
45048
45103
45100
45178
45171
45192
45152
45213
45212
45254
45164
45230
45274
45320
45287
45310
45360
45364
45364
45359
45364
45400
45409
45397
45483
45460
45501
45480
45552
45536
45498
45499
45560
45595
45636
45588
45633
45642
45687
45659
45627
45708
45741
45715
45723
45792
45806
45800
45804
45876
45788
45866
45854
45928
45942
45967
45916
45974
45972
45991
45903
45962
45981
46049
46025
46036
46061
46082
46032
46029
46030
46060
46050
46032
46092
46041
46033
45980
46000
45955
45872
45820
45851
45799
45774
45663
45643
45626
45600
45504
45387
45412
45367
45284
45228
45209
45147
45052
44984
44963
44842
44804
44727
44725
44626
44593
44469
44461
44394
44355
44193
44182
44139
44105
44020
43984
43960
43892
43820
43783
43725
43708
43661
43618
43637
43579
43559
43476
43476
43450
43380
43339
43379
43346
43349
43272
43269
43242
43250
43185
43118
43193
43158
43127
43105
43133
43120
43087
43048
43088
42996
43041
42991
43039
42992
42996
42930
42961
42948
42963
42807
42860
42892
42898
42824
42817
42854
42831
42781
42751
42731
42689
42719
42719
42741
42721
42736
42681
42710
42679
42632
42577
42627
42614
42632
42565
42572
42576
42573
42532
42485
42543
42544
42509
42505
42537
42528
42507
42500
42543
42467
42503
42473
42541
42524
42557
42506
42534
42534
42557
42453
42502
42525
42539
42516
42506
42561
42554
42516
42526
42530
42548
42567
42555
42605
42575
42577
42550
42621
42583
42553
42537
42584
42583
42594
42542
42578
42609
42609
42562
42515
42593
42587
42547
42563
42608
42603
42577
42560
42621
42535
42576
42558
42613
42579
42602
42536
42580
42555
42597
42481
42543
42580
42585
42541
42547
42598
42585
42555
42558
42547
42566
42578
42559
42625
42596
42607
42584
42647
42617
42603
42575
42634
42643
42676
42629
42644
42666
42698
42672
42631
42687
42721
42698
42720
42761
42755
42772
42759
42813
42746
42817
42799
42868
42841
42870
42833
42900
42898
42929
42819
42891
42923
42951
42940
42974
43012
43019
42989
42992
43008
43032
43061
43058
43112
43091
43144
43092
43182
43154
43152
43143
43197
43207
43253
43204
43246
43266
43296
43269
43234
43316
43357
43335
43353
43405
43422
43402
43402
43466
43412
43475
43464
43532
43532
43555
43509
43551
43561
43599
43508
43573
43617
43660
43632
43650
43694
43724
43695
43696
43702
43752
43775
43771
43850
43836
43835
43814
43894
43876
43849
43854
43926
43950
43982
43945
43971
44001
44025
43983
43973
44049
44090
44059
44070
44129
44148
44148
44145
44212
44147
44199
44189
44257
44264
44281
44225
44277
44300
44342
44246
44331
44361
44398
44372
44389
44432
44453
44434
44436
44451
44485
44503
44490
44570
44561
44583
44565
44623
44615
44588
44591
44643
44676
44708
44680
44696
44746
44776
44750
44708
44800
44816
44813
44810
44866
44887
44887
44871
44933
44883
44957
44932
45005
45004
45043
44985
45043
49139
45105
44999
45066
45111
45144
45110
45128
45180
45183
45187
45201
45190
45231
45239
45252
45310
45305
45349
45321
45386
45356
45359
45348
45383
45405
45455
45414
45436
45474
45490
45484
45439
45541
45548
45544
45544
45609
45613
45630
45598
45680
45615
45671
45657
45731
45713
45747
45704
45758
45773
45827
45722
45764
45848
45870
45843
45853
45918
45917
45918
45921
45934
45960
45977
45975
46062
46027
46065
46035
46108
46082
46078
46075
46116
46133
46178
46130
46164
46203
46203
46175
46132
46216
46230
46189
46200
46234
46208
46199
46158
46202
46107
46139
46065
46106
46041
46021
45918
45922
45875
45848
45685
45699
45675
45642
45555
45494
45478
45407
45323
45243
45186
45144
45080
45005
44992
44907
44868
44760
44753
44676
44565
44502
44479
44427
44388
44281
44249
44196
44171
44065
43985
44026
43966
43906
43858
43869
43821
43771
43717
43720
43637
43649
43570
43604
43572
43562
43478
43471
43471
43458
43348
43370
43394
43394
43338
43323
43336
43312
43273
43259
43246
43255
43246
43202
43244
43224
43221
43168
43223
43183
43144
43098
43123
43139
43153
43085
43093
43103
43114
43065
42992
43063
43051
43014
43017
43045
43002
42978
42978
42995
42912
42956
42899
42955
42929
42944
42865
42888
42880
42903
42787
42841
42848
42862
42815
42814
42841
42841
42792
42799
42792
42812
42817
42797
42843
42847
42849
42797
42860
42842
42805
42788
42825
42833
42864
42831
42828
42852
42880
42845
42799
42890
42891
42861
42865
42908
42895
42892
42857
42922
42857
42892
42880
42925
42917
42941
42871
42903
42921
42932
42821
42862
42919
42931
42871
42889
42928
42904
42883
42881
42869
42884
42883
42889
42941
42918
42931
42868
42932
42903
42877
42849
42883
42882
42916
42851
42881
42901
42928
42885
42826
42844
42899
42899
42893
42944
42934
42921
42918
42971
42893
42955
42935
42985
42968
42986
42937
42970
42970
43025
42940
42987
43028
43052
43018
43015
43069
43066
43053
43065
43059
43094
43125
43119
43183
43168
43188
43144
43195
43195
43170
43159
43200
43256
43268
43226
43256
43284
43302
43279
43238
43333
43339
43330
43344
43413
43403
43409
43408
43471
43405
43460
43457
43506
43492
43543
43489
43540
43553
43595
43519
43588
43627
43644
43627
43638
43707
43711
43678
43684
43707
43724
43764
43740
43815
43816
43829
43806
43878
43847
43840
43842
43895
43909
43935
43898
43926
43982
44003
43971
43940
44043
44027
44019
44039
44102
44093
44115
44099
44174
44091
44178
44169
44204
44211
44251
44208
44252
44250
44296
44211
44265
44326
44361
44325
44347
44399
44395
44395
44402
44414
44443
44457
44436
44531
44527
44542
44512
44575
44559
44541
44537
44593
44630
44666
44622
44636
44683
44712
44676
44658
44744
44746
44747
44753
44811
44807
44815
44816
44877
44804
44883
44878
44919
44920
44956
44908
44958
44967
45008
44926
44990
45018
45061
45040
45053
45133
45129
45125
45121
45134
45166
45186
45173
45249
45248
45275
45240
45309
45308
45289
45292
45337
45362
45393
45351
45396
45425
45446
45415
45389
45486
45503
45490
45490
45561
45558
45575
45562
45647
45580
45641
45607
45673
45665
45712
45660
45701
45735
45773
45673
45736
45793
45820
45785
45791
45863
45862
45869
45869
45868
45922
45938
45928
46004
45986
46009
45976
45976
46036
46030
46022
46063
46078
46120
46082
46117
46157
46187
46145
46110
46204
46225
46227
46236
46322
46291
46304
46292
46369
46298
46362
46348
46399
46404
46432
46403
46439
46453
46469
46390
46383
46473
46503
46464
46482
46535
46513
46472
46465
46441
46444
46441
46393
46432
46371
46355
46284
46289
46244
46171
46097
46080
46065
46013
45909
45888
45868
45823
45730
45616
45645
45572
45501
45445
45421
45364
45291
45209
45225
45085
45066
44968
44960
44882
44840
44734
44717
44687
44642
44515
44516
44515
44471
44392
44349
44369
44293
44257
44215
44168
44173
44152
44098
44135
44079
44089
44015
44050
44006
43935
43906
43923
43933
43949
43886
43902
43904
43904
43854
43796
43862
43864
43850
43820
43863
43855
43847
43817
43847
43770
43823
43769
43811
43808
43825
43763
43779
43774
43791
43683
43721
43765
43765
43740
43720
43764
43752
43728
43689
43689
43714
43719
43694
43738
43704
43726
43669
43694
43688
43634
43629
43659
43667
43675
43642
43638
43681
43695
43644
43596
43698
43684
43682
43675
43718
43712
43712
43681
43745
43672
43732
43696
43736
43732
43765
43732
43742
43759
43784
43682
43748
43789
43802
43766
43778
43822
43817
43817
43797
43770
43808
43824
43793
43853
43830
43839
43793
43843
43839
43788
43770
43804
43822
43841
43801
43800
43838
43832
43793
43743
43821
43839
43814
43803
43855
43820
43819
43785
43838
43767
43827
43778
43818
43821
43843
43776
43791
43802
43833
43732
43790
43804
43858
43808
43806
43868
43855
43842
43820
43803
43849
43885
43854
43917
43910
43900
43881
43927
43909
43899
43895
43903
43954
43979
43942
43960
44013
44003
43982
43940
44044
44054
44028
44031
44108
44097
44113
44111
44154
44106
44153
44128
44180
44183
44238
44178
44210
44248
44278
44205
44245
44298
44314
44307
44301
44373
44364
44360
44349
44361
44401
44420
44416
44487
44471
44500
44454
44454
44513
44493
44393
44515
44549
44598
44579
44580
44628
44652
44619
44583
44693
44707
44709
44697
44765
44754
44770
44770
44835
44754
44839
44803
44856
44865
44879
44850
44893
44900
44936
44846
44911
44970
44982
44970
44959
45039
45057
45040
45048
45057
45069
45098
45067
45144
45136
45175
45134
45190
45188
45164
45169
45206
45243
45285
45243
45272
45300
45323
45290
45238
45337
45349
45361
45373
45407
45409
45420
45411
45470
45415
45490
45460
45508
45513
45567
45514
45555
45588
45599
45528
45579
45627
45656
45631
45639
45706
45701
45703
45698
45713
45743
45787
45756
45823
45799
45841
45800
45869
45851
45837
45842
45878
45904
45938
45916
45940
45965
45965
45964
45918
46018
46032
46059
46046
46100
46072
46097
46096
46155
46099
46104
46107
46159
46202
46227
46187
46217
46254
46270
46196
46246
46279
46321
46299
46308
46373
46376
46366
46362
46382
46406
46438
46415
46479
46469
46496
46457
46503
46515
46487
46493
46542
46574
46599
46580
46601
46654
46659
46653
46592
46697
46695
46691
46701
46769
46762
46801
46761
46825
46775
46844
46811
46869
46862
46895
46868
46900
46913
46958
46868
46932
46993
47001
46983
46991
47042
47031
47022
47001
47004
47034
47032
46992
47037
46986
46989
46907
46931
46887
46829
46782
46764
46749
46728
46650
46585
46582
46538
46458
46331
46371
46323
46253
46174
46166
46072
46014
46014
45931
45777
45762
45661
45636
45589
45533
45414
45371
45320
45269
45120
45092
45089
45047
44941
44892
44873
44813
44755
44694
44664
44612
44605
44524
44552
44483
44470
44393
44378
44353
44285
44260
44251
44238
44240
44190
44165
44159
44146
44099
44015
44097
44088
44062
44038
44061
44026
44037
43975
44034
43948
43988
43910
43944
43937
43946
43880
43892
43880
43888
43762
43815
43857
43842
43800
43781
43812
43779
43763
43715
43730
43712
43734
43688
43719
43668
43675
43623
43642
43638
43595
43565
43588
43603
43593
43552
43557
43593
43550
43519
43457
43544
43520
43512
43495
43537
43505
43510
43472
43524
43447
43495
43449
43491
43500
43516
43460
43489
43497
43524
43427
43471
43511
43533
43494
43499
43538
43531
43526
43504
43486
43521
43539
43510
43560
43539
43564
43506
43545
43542
43518
43480
43519
43531
43531
43525
43510
43540
43531
43513
43441
43530
43533
43520
43488
43562
43520
43517
43486
43548
43464
43513
43457
43506
43512
43519
43449
43473
43494
43502
43413
43453
43484
43489
43450
43458
43520
43481
43482
43478
43458
43478
43507
43479
43532
43489
43529
43485
43502
43505
43471
43482
43510
43544
43560
43527
43531
43573
43582
43544
43506
43592
43610
43603
43603
43663
43645
43662
43617
43699
43635
43692
43661
43715
43719
43736
43698
43737
43757
43770
43718
43762
43810
43817
43808
43819
43863
43866
43867
43847
43863
43893
43918
43897
43972
43943
43984
43934
43978
43993
43962
43974
44010
44046
44074
44039
44047
44124
44122
44118
44064
44163
44173
44185
44170
44244
44225
44253
44214
44288
44229
44292
44259
44309
44315
44350
44319
44337
44358
44384
44318
44360
44412
44438
44428
44430
44489
44476
44503
44478
44489
44516
44549
44521
44594
44572
44611
44559
44610
44611
44602
44592
44619
44669
44706
44670
44675
44741
44750
44726
44684
44780
44780
44795
44794
44848
44841
44862
44862
44896
44838
44905
44876
44915
44925
44972
44943
44968
45008
45033
44942
44995
45073
45071
45063
45057
45131
45109
45126
45129
45138
45153
45212
45171
45240
45227
45259
45192
45246
45264
45249
45253
45292
45326
45357
45315
45336
45392
45402
45393
45343
45456
45464
45474
45450
45537
45503
45545
45494
45573
45529
45575
45553
45597
45624
45647
45615
45636
45683
45704
45618
45683
45752
45773
45741
45744
